# nanotube RBM modes
# 22/7/2007
,1.89RBM,1.90RBM,1.91RBM,1.92RBM,1.93RBM
125.2566,0.26426,0.28273000000000004,0.25838029743589735,0.172545810526316,0.2282604315789472
125.4366,0.25803,0.28722999999999993,0.25758365945945944,0.17689,0.22561341315789474
125.6166,0.27809,0.2939842222222228,0.2594225783783784,0.17689,0.22526762368421052
125.9866,0.26996,0.3129876324324325,0.2620746702702702,0.17281626315789478,0.2355567216216214
126.3466,0.28147,0.30309493333333315,0.25695661052631596,0.17314513333333317,0.2342813263157897
126.7166,0.30322,0.31533,0.2488756297297298,0.1785655052631579,0.23488038947368411
127.0766,0.28886,0.32456801081081066,0.24654096756756755,0.17898096216216217,0.2375396925
127.4366,0.30343,0.32876242222222174,0.24703,0.18251383999999995,0.23381162368421052
127.8066,0.30142,0.2898969081081083,0.2629567810810811,0.18316757837837844,0.22306361315789494
128.1666,0.29456,0.30266229999999916,0.2849167789473679,0.1816259578947365,0.21765154999999908
128.5366,0.2897,0.31403422702702705,0.2691178648648653,0.1839065081081084,0.23186146842105212
128.8966,0.282,0.3156459333333334,0.2645242783783784,0.1799876421052631,0.23699287027027022
129.2666,0.28981,0.319416572972972,0.2655636550000002,0.1836791783783783,0.22567
129.6266,0.26478,0.30551,0.2712536783783784,0.17714484210526343,0.2269309270270268
129.9966,0.28801,0.307377010526316,0.2796159027027027,0.17511023783783738,0.23158607894736896
130.3566,0.27745,0.3239540210526312,0.27445965945946077,0.19580873684210637,0.2348785342105269
130.7266,0.28611,0.3268919567567565,0.2610767972972968,0.17954556923076964,0.22462243947368393
131.0866,0.29445,0.3395962666666664,0.26288498108108116,0.16976595789473675,0.23550770789473655
131.4566,0.29445,0.30789942702702594,0.251211724324324,0.1664749052631577,0.22128218157894672
131.8166,0.2859,0.29107595555555565,0.2458279810810811,0.17297614054054058,0.21915678157894736
131.9966,0.26658,0.30113595555555567,0.24544365675675675,0.17032359999999983,0.22285692432432463
132.1766,0.28347,0.3095474702702701,0.24742698918918937,0.16721623157894702,0.22743962702702744
132.5466,0.26457,0.2770712444444445,0.2527784486486485,0.16665,0.22896299024390246
132.9066,0.29551,0.28563112432432425,0.248619381081081,0.16879402105263164,0.22475194324324316
133.2766,0.26605,0.27919995555555555,0.2482206500000003,0.16792453333333296,0.22870610526315813
133.6366,0.25856,0.2775025405405402,0.2424077512820503,0.1779556210526315,0.23139078421052625
134.0066,0.26289,0.28300063783783785,0.25946,0.17834982702702704,0.23137013421052632
134.3666,0.24926,0.2820363333333331,0.2580211324324322,0.16999407999999977,0.23378507894736844
134.7366,0.2726,0.2750250810810811,0.24247279473684238,0.17900632432432473,0.23409559459459456
135.0966,0.27186,0.27713079999999973,0.2372482081081082,0.17609890526315805,0.22320196097561026
135.4566,0.26658,0.2833353405405404,0.23441459459459463,0.16298815135135106,0.21600444324324328
135.8266,0.27017,0.278792733333333,0.23160084594594624,0.16671355789473738,0.21859987105263157
136.1866,0.26341,0.26765,0.23589165675675683,0.16890600000000006,0.21826
136.5566,0.24399,0.26764816666666663,0.24629030540540556,0.1648875789473684,0.2182876
136.9166,0.24356,0.26708307368421075,0.23081154594594655,0.16868821621621594,0.21096062105263194
137.2766,0.24842,0.26543768888888886,0.22926433783783784,0.16834954594594603,0.20829030499999984
137.6466,0.24831,0.26937534054054074,0.23876898157894746,0.16405133684210527,0.20505831621621656
138.0066,0.24831,0.2736746444444444,0.2280667000000005,0.16592066999999994,0.21662757631578936
138.3766,0.24504,0.2793554461538463,0.23297269230769233,0.16981118918918892,0.22026513157894737
138.5566,0.24399,0.27452434594594544,0.23083829189189164,0.17343551351351333,0.21765986842105248
138.7366,0.25222,0.2682438054054047,0.2258566702702699,0.17208675675675664,0.21518731315789458
139.1066,0.25454,0.26620000000000005,0.22990217837837806,0.16645,0.2122026789473684
139.4666,0.25866,0.2561234378378381,0.22973275945945948,0.16391754594594612,0.2106679421052632
139.8266,0.24726,0.2700196333333342,0.2288219837837838,0.15370751578947278,0.2021181972972967
140.1966,0.26267,0.26374797837837854,0.22433707567567573,0.15256217297297314,0.21371751315789408
140.5566,0.24652,0.2644327666666666,0.21991675135135122,0.14738111578947335,0.19683887749999943
140.9266,0.24483,0.2757028216216222,0.21879,0.13977121081081073,0.19735124736842105
141.2866,0.2688,0.27095965555555573,0.21000884054054078,0.15571058,0.19467254736842127
141.6466,0.25919,0.26536859459459455,0.19480052222222277,0.15398201081081042,0.200733252631579
142.0166,0.26088,0.2707935675675676,0.21090138648648651,0.14210122105263176,0.20561338648648653
142.3766,0.27893,0.2569480000000001,0.20452717837837833,0.14766227368421053,0.20900747894736832
142.7466,0.25486,0.26489971891891895,0.1998590108108108,0.13451809729729722,0.20040592631578943
143.1066,0.24863,0.26646,0.19996845675675673,0.15614819459459348,0.19387
143.4666,0.26067,0.2618424648648647,0.20476433500000002,0.12901786315789476,0.20144342631578935
143.8366,0.25286,0.24875453333333325,0.20647281621621622,0.14526076756756762,0.21447367297297304
144.1966,0.25497,0.25148005405405377,0.21308670810810723,0.15972995789473643,0.22002416315789466
144.5666,0.25497,0.25516215555555555,0.22295689189189188,0.14185461621621684,0.20697993684210517
144.9266,0.25317,0.24636492972972945,0.2161389540540532,0.14282862702702703,0.2112368052631578
145.1066,0.26109,0.24306123333333357,0.20806814324324346,0.14703871999999935,0.20993891052631583
145.2866,0.24367,0.24074623333333356,0.21082542702702703,0.15200671999999946,0.20916506756756756
145.6566,0.25539,0.22551499459459434,0.2132286972972973,0.15457852631578953,0.21154125789473693
146.0166,0.2499,0.2368794162162171,0.2148747945945949,0.15432,0.21779349749999954
146.3766,0.24853,0.2333134222222224,0.21466674324324378,0.16024562162162154,0.21071487631578947
146.7466,0.25475,0.2359499692307693,0.20570849729729704,0.16319273684210528,0.21044613421052616
147.1066,0.2575,0.23914359999999987,0.2129146108108106,0.15753421052631547,0.20556348421052625
147.4766,0.25148,0.23765200000000014,0.21579,0.16841119999999996,0.21994047837837893
147.8366,0.25169,0.2331978594594593,0.21294292162162143,0.1687683789473683,0.2102788567567563
148.1966,0.2367,0.2517219888888883,0.21072104102564054,0.16261578378378386,0.21413308684210502
148.5666,0.23206,0.25223544864864894,0.21515360000000108,0.16174710526315791,0.22027767631578926
148.9266,0.22308,0.2402332666666662,0.21450754594594476,0.17132147692307728,0.21825078750000004
149.2866,0.24926,0.24683974054054053,0.19701135135135123,0.17934486315789472,0.21864042631578942
149.6566,0.23797,0.25108,0.2117224108108108,0.18230630270270262,0.22249033783783767
150.0166,0.23923,0.25494858378378377,0.21584154324324367,0.19122098378378397,0.22376
150.3866,0.2367,0.248992455555556,0.2334296243243251,0.1982484000000006,0.22208820263157905
150.7466,0.24525,0.2507977333333334,0.2220135405405406,0.18594833513513542,0.22234177837837837
151.1066,0.24525,0.24813253333333346,0.22262654594594572,0.17323335789473615,0.21818973684210582
151.4766,0.25739,0.23925703783783786,0.24544902972972965,0.18224408648648657,0.2082347263157897
151.8366,0.22868,0.2406085621621623,0.2526781783783783,0.18066218378378376,0.20543580250000001
152.0166,0.23227,0.24446360000000034,0.2511311513513513,0.18158164324324325,0.20683530250000004
152.1966,0.24346,0.2500035999999995,0.24905989459459507,0.1836933894736835,0.20670610789473687
152.5666,0.24029,0.2638098378378378,0.2364141108108109,0.1938,0.2013878540540543
152.9266,0.24019,0.27092150000000015,0.23425046216216225,0.19340797894736778,0.19245354999999995
153.2866,0.22108,0.2744394054054053,0.22497802972972958,0.17380692631578942,0.18868214210526324
153.6566,0.22509,0.2860883000000001,0.2377434615384614,0.17800460540540544,0.18737273783783787
154.0166,0.2367,0.2894464108108107,0.2376530162162162,0.17472693333333403,0.19083644210526274
154.3766,0.2347,0.27082320000000054,0.23758,0.1699239157894737,0.18167955789473683
154.7466,0.2593,0.2667196864864862,0.22650839999999967,0.17063450810810812,0.1838456050000002
155.1066,0.28474,0.27013679999999995,0.23183667027027016,0.16810379459459474,0.19135859999999974
155.4666,0.27904,0.2662308864864865,0.23749952222222173,0.15646953684210535,0.20073958918918955
155.8366,0.23248,0.2691582444444447,0.24688226216216233,0.15102471351351351,0.21731911052631542
156.1966,0.27006,0.27216,0.23528945945946023,0.14655982702702727,0.20066437368421064
156.5566,0.2613,0.2674656444444444,0.23281172702702702,0.15359633684210516,0.20957418421052676
156.9266,0.26035,0.2809227027027026,0.21721541351351265,0.13726197948717864,0.21069
157.2866,0.26098,0.27208981052631565,0.22091234594594603,0.1323399789473685,0.20887324999999998
157.6466,0.26098,0.2694144421052632,0.22277849189189186,0.15130764324324453,0.21342891315789475
158.0166,0.25834,0.268126789189189,0.22011724864864854,0.16594622702702727,0.21658995714285842
158.3766,0.25011,0.2732785333333334,0.21156312972972993,0.17389612631578955,0.2360409263157892
158.5566,0.25591,0.2797246054054053,0.2093145162162162,0.17878972972972973,0.24124476216216204
158.7366,0.25972,0.2698343351351348,0.21197559729729734,0.179032972972973,0.24485449189189215
159.1066,0.26595,0.2480068888888896,0.2392088135135108,0.1769627675675677,0.23883995526315852
159.4666,0.23807,0.2351879459459459,0.24908791282051287,0.1747,0.22847024736842125
159.8266,0.23966,0.23191709999999993,0.2574832648648654,0.174784972972973,0.22425032702702702
160.1966,0.22868,0.2271847135135139,0.25571978378378457,0.17950553513513476,0.22963849210526252
160.5566,0.21622,0.2271754702702703,0.24228860810810837,0.16987338947368422,0.22818128684210534
160.9166,0.21009,0.24910057777777694,0.23696,0.17704766153846133,0.21780856000000018
161.2766,0.1893,0.260711037837838,0.2356806702702702,0.18613492631578965,0.21368261621621631
161.6466,0.20418,0.26414564444444494,0.23855051081081102,0.1927065837837838,0.2163888447368418
162.0066,0.19774,0.2786549081081081,0.23018320000000103,0.19377521081081073,0.2303657657894739
162.3666,0.22076,0.2771172777777778,0.23348211891891893,0.18718646315789456,0.22777282162162163
162.7366,0.23807,0.27593,0.24193562500000024,0.18428960000000041,0.235224402631579
163.0966,0.24842,0.2788181666666667,0.25342354864864863,0.19009731891891893,0.24445661842105237
163.4566,0.23913,0.2646654270270264,0.26208895945945954,0.19171920000000015,0.25454
163.8266,0.23871,0.2542398666666668,0.2635777189189189,0.1953069513513512,0.2540415815789472
164.1866,0.23871,0.2633134594594595,0.2656232648648647,0.19299070270270272,0.24834926750000003
164.5466,0.27703,0.27312740000000063,0.2676047972972972,0.19295489729729753,0.24508226749999995
164.9066,0.24768,0.28143277837837866,0.262028389189189,0.20069976216216198,0.22982465526315807
165.0966,0.23153,0.27767899459459494,0.2575505513513513,0.19387104000000047,0.23707937777777705
165.2766,0.24578,0.28126799999999985,0.2531342756756755,0.1872470400000003,0.23390490000000014
165.6366,0.25813,0.27461160000000107,0.24539706153846172,0.19729744864864857,0.23919447631578913
165.9966,0.25634,0.26692268888888915,0.24215009189189185,0.21005564210526295,0.2314947999999999
166.3666,0.25909,0.28202130810810805,0.2460410783783788,0.21229,0.2424011081081084
166.7266,0.26331,0.2764047444444447,0.25789831081081066,0.20613715675675676,0.23521398157894766
167.0866,0.26521,0.2631465297297299,0.2775509918918919,0.20215101052631565,0.23742077837837852
167.4466,0.25338,0.25349039999999995,0.27939,0.20120556756756758,0.2519253974999993
167.8166,0.25813,0.2594848972972972,0.27975641891891884,0.20197004210526326,0.2563834894736844
168.1766,0.26193,0.27545302222222295,0.28153303333333335,0.20584061621621644,0.25635851842105273
168.5366,0.25286,0.2918620864864866,0.27639305945945947,0.20247387368421063,0.2576210297297298
168.8966,0.24251,0.3007109000000004,0.2746981736842105,0.19497425945945931,0.2608202500000002
169.2666,0.2575,0.30885,0.2683552621621623,0.20858032432432488,0.2666690184210526
169.6266,0.25095,0.30406933333333364,0.2770439864864867,0.21842963,0.26761824594594597
169.9866,0.26542,0.30959035675675856,0.27129946486486484,0.21558820540540524,0.266107328947368
170.3566,0.26816,0.33294423333333434,0.2784749054054053,0.2201701405405404,0.25817
170.7166,0.26816,0.3094718947368429,0.28679382432432443,0.23581200000000047,0.2568784475
171.0766,0.27176,0.32058540000000024,0.3033572216216223,0.24747725405405438,0.2544427894736845
171.4366,0.28326,0.32077152432432443,0.3186622081081079,0.25146748108108113,0.2630541552631579
171.8066,0.26489,0.3196318666666667,0.35879376756756703,0.2597604324324327,0.2746498473684211
171.9866,0.28104,0.3271618666666673,0.35494269999999967,0.26841989189189236,0.2751248333333333
172.1666,0.29794,0.33621610810810787,0.34796270000000024,0.27515090526315755,0.2754241473684208
172.5266,0.30945,0.3501064888888889,0.3509014702702703,0.27939191351351333,0.28503696315789484
172.8866,0.30712,0.35719575135135,0.37514380256410085,0.26937,0.29058854210526314
173.2566,0.31356,0.39098454444444464,0.38669733783783783,0.269472454054054,0.29031064864864864
173.6166,0.34756,0.421810972972973,0.415158337837839,0.2706939578947368,0.300144971052632
173.9766,0.33542,0.4227813333333335,0.41148705135135155,0.27780686153846085,0.3163269864864864
174.3366,0.37227,0.4230466461538468,0.40868,0.30062608421052767,0.3144668149999999
174.7066,0.39613,0.45000876756756814,0.39795337027027017,0.3166487459459462,0.32359193157894783
175.0666,0.37111,0.4983251999999992,0.4261964513513494,0.32149819459459467,0.3250350052631579
175.4266,0.34017,0.5085908324324305,0.45227244324324395,0.32807335135135113,0.3187683810810808
175.7866,0.37015,0.46172,0.44723620000000014,0.3202409189189191,0.3082811289473684
176.1566,0.39518,0.4601536108108111,0.4373723486486489,0.30354970526315783,0.2988164135135134
176.5166,0.43255,0.44787524444444266,0.4345303675675676,0.30483737297297303,0.29160910789473643
176.8766,0.37818,0.4222040324324323,0.4189450054054053,0.29373215135135167,0.3025672394736848
177.2366,0.37818,0.4243107555555554,0.4046570783783779,0.2755813837837837,0.31669
177.5966,0.33214,0.39274589189189185,0.3957823324324324,0.2694434315789475,0.32021406250000006
177.9666,0.33732,0.38557315555555555,0.37983476216216205,0.2646182810810812,0.3313015500000002
178.3266,0.31557,0.3819410054054051,0.3528620666666662,0.24814282162162163,0.34494626486486535
178.5066,0.3143,0.37272695135135153,0.3388973702702707,0.24335678918918932,0.3490230216216216
178.6666,0.32381,0.36498617777777775,0.3356065594594598,0.24193408648648657,0.35156977894736835
179.0466,0.3086,0.3617472540540543,0.3391186648648656,0.24943302000000053,0.3804347027027036
179.4166,0.32602,0.3648412000000017,0.327873943243244,0.2823897297297285,0.39534433157894716
179.7766,0.30375,0.32736986666666684,0.31081677027027027,0.29691,0.4055568631578952
180.1166,0.28221,0.33346221621621625,0.30028251891891894,0.3081547999999999,0.41949658918919014
180.4766,0.29488,0.33960993333333345,0.31229783076922885,0.3145146210526318,0.4388482921052631
180.8366,0.28453,0.33647510270270153,0.34981,0.32369010810810794,0.46765776578947504
181.1966,0.27809,0.29900591351351435,0.36000444054053954,0.34181764444444446,0.5220180799999996
181.5666,0.265,0.2893027891891888,0.3849059694444444,0.3659127891891886,0.5351569810810811
181.9266,0.27957,0.2991395459459465,0.3923501216216226,0.3885561157894742,0.5614565184210538
182.2866,0.25307,0.34607984444444345,0.4039575842105263,0.4017233405405407,0.5867589189189187
182.6466,0.21495,0.34725,0.43273835945945943,0.4051772648648657,0.5952708684210528
183.0066,0.21305,0.3535716777777778,0.4315073297297296,0.4203277621621621,0.6140318918918916
183.3766,0.31145,0.36739848648648654,0.4379954837837834,0.4254393621621621,0.6222007842105263
183.7366,0.31145,0.36935211111111116,0.446636875,0.43472536842105297,0.6050712157894722
184.0966,0.30206,0.39801919999999946,0.44119105675675674,0.4447727675675678,0.59499
184.4566,0.29424,0.3850435999999996,0.44060432972972985,0.43132188717948694,0.5933011999999999
184.8166,0.29942,0.37795791351351365,0.4452502459459463,0.4225700421052632,0.5769247624999998
184.9966,0.31926,0.3645698444444441,0.4403221378378381,0.42779477894736834,0.5627722624999995
185.1866,0.31451,0.34748039999999913,0.4355159783783786,0.4293897297297307,0.555754081081081
185.5466,0.28537,0.3347749729729724,0.42857858333333293,0.40329338378378327,0.545146526315789
185.9066,0.26753,0.3528887666666662,0.4225526432432432,0.39507929729729735,0.5349986833333334
186.2666,0.28717,0.3714623027027027,0.4210017378378376,0.40409,0.5547979815789482
186.6266,0.29994,0.38285971111111106,0.4092101189189185,0.40409,0.5754899756756757
186.9866,0.34028,0.4105823333333335,0.4212190054054052,0.4069669081081081,0.5906599605263163
187.3566,0.39739,0.4184428648648648,0.4429,0.4153983999999996,0.6109463270270261
187.7166,0.36836,0.42031531111111115,0.4429,0.433774259459459,0.6464579605263159
188.0766,0.34619,0.4220591783783784,0.46817076666666707,0.44606883243243245,0.6710250054054068
188.4366,0.35939,0.39129293333333265,0.46438422972972987,0.46148000000000033,0.6982073675
188.7966,0.32845,0.3959999351351358,0.4630049675675675,0.48727589189189313,0.7375570578947375
189.1666,0.33141,0.39846,0.4682733459459459,0.5014195157894736,0.7634765315789466
189.5266,0.30512,0.40117894054054043,0.48187998421052636,0.5004279351351351,0.7802221324324323
189.8866,0.31589,0.40893439999999964,0.483668523076923,0.5201547076923064,0.7902817473684207
190.2466,0.31589,0.415365772972973,0.4881867111111111,0.5397507675675671,0.8086433648648648
190.6066,0.31324,0.4125257333333334,0.49482568108108077,0.5516232526315783,0.8164295236842103
190.9666,0.31589,0.4007947578947368,0.49930192972972964,0.5612063459459457,0.81757
191.3366,0.32813,0.4026489555555556,0.5049395405405405,0.5817948108108112,0.8314426648648652
191.6966,0.31388,0.4055752222222222,0.5124598918918918,0.6052191999999998,0.8665213736842098
191.8766,0.30206,0.41097734054054075,0.5235711583333339,0.6156228756756759,0.8906526000000001
192.0366,0.31251,0.4185146378378378,0.5398778249999996,0.6261612540540539,0.9172125999999992
192.3966,0.30533,0.4238632888888889,0.5648445486486487,0.6530132540540545,0.9649459236842116
192.7566,0.31324,0.4341166270270262,0.584139964864864,0.6868390631578938,1.0476731238095207
193.1166,0.33109,0.45145570000000007,0.6175782351351363,0.71045,1.1309056999999996
193.4766,0.3293,0.47671087567567483,0.6478022216216217,0.7245279459459444,1.1946271342105241
193.8366,0.36319,0.4869,0.6693549833333337,0.761358832432432,1.2448561459459462
194.2066,0.36994,0.5109548108108126,0.67797,0.7975153405405411,1.2857494000000007
194.5666,0.37554,0.5280129777777777,0.6950930027027012,0.8415530486486491,1.333514208108107
194.9266,0.37047,0.5547609729729728,0.7361850918918929,0.8887972210526344,1.3764125815789476
195.2866,0.38346,0.5524206111111118,0.7702265166666664,0.9340931027027026,1.4039511378378375
195.6466,0.37807,0.54176,0.7977174486486487,0.9371308307692312,1.4154597578947368
196.0066,0.40141,0.5557852756756754,0.8304910631578936,0.9480593621621628,1.405636470270271
196.3666,0.39328,0.5756333333333339,0.8461816567567566,0.9346347135135137,1.3670175175000001
196.7366,0.39328,0.5946756648648652,0.8360279891891889,0.9226022315789452,1.3092432
197.0966,0.37237,0.5868332,0.8257031000000001,0.8829606702702715,1.2289064210526297
197.4566,0.38399,0.5718313684210518,0.8170695756756756,0.8579941837837823,1.1459169473684212
197.8166,0.39286,0.5453155666666673,0.7932662081081094,0.8203615783783782,1.14156
198.1766,0.37142,0.5393966000000002,0.7423044108108089,0.7605214918918901,1.0781717763157896
198.3566,0.35759,0.5439684108108108,0.7224752216216223,0.7352668108108126,1.0350358054054096
198.5366,0.36213,0.5416624648648649,0.7034176583333338,0.710747891891893,0.988663913513513
198.8966,0.32803,0.5095612666666663,0.6618615972972974,0.6552633297297296,0.9042528473684209
199.2566,0.32982,0.4756783675675679,0.6223918621621628,0.6138951783783804,0.8381026783783785
199.6266,0.32813,0.45677062222222214,0.5954341540540532,0.5690292736842119,0.7293076421052685
199.9866,0.31768,0.4392796216216214,0.56093018611111,0.56129,0.6538710567567542
200.3466,0.31451,0.42822986666666674,0.5361096594594601,0.5264146054054051,0.6065492763157904
200.7066,0.29245,0.4143127027027019,0.52144,0.4952628324324311,0.5642941824999986
201.0666,0.28696,0.390266133333334,0.5162468615384626,0.46207217297297304,0.5202208486486481
201.4066,0.27851,0.3713712000000001,0.49487885945945975,0.43997408648648656,0.4830930567567565
201.7666,0.23206,0.3500587243243226,0.46002982499999945,0.41259159999999623,0.45219377631578817
202.1266,0.24599,0.32563,0.4356037918918919,0.3537968648648655,0.4166137675675673
202.4866,0.22297,0.32423326486486476,0.43385403333332945,0.328116779999999,0.37790728947368324
202.8466,0.23015,0.32436075555555555,0.3644057189189191,0.30400775135135105,0.35434715135135125
203.2066,0.23015,0.3178299111111101,0.34798193513513487,0.28555959999999914,0.3321263315789466
203.5766,0.22002,0.2945294810810803,0.31167781891891777,0.25890387027026884,0.308633513513512
203.9366,0.20101,0.2849691111111111,0.2941740351351349,0.228438702702703,0.28229654210526306
204.2966,0.20619,0.2548445621621619,0.26423070270270155,0.20910497297297287,0.26625
204.6566,0.17863,0.2399739666666668,0.2488828611111117,0.1954205263157902,0.2644199684210526
204.8366,0.1667,0.23706896666666655,0.24177781621621608,0.18322315789473698,0.25640523157894696
205.0166,0.16111,0.22787512432432333,0.2346945729729721,0.17814513513513514,0.24694678205128007
205.3766,0.16575,0.20370346666666717,0.206442551351351,0.17423825945946,0.20628524358974482
205.7366,0.13323,0.19290791111111116,0.18111369999999904,0.1639164864864865,0.20583436842105265
206.0966,0.13988,0.19681622702702736,0.16685728611111159,0.1587243027027025,0.1862914081081088
206.4566,0.14273,0.17168422222222163,0.17553130270270328,0.14338,0.17969739999999956
206.8166,0.1327,0.15579947027027025,0.16187562702702685,0.13856901621621673,0.17113583243243258
207.1766,0.10346,0.15419639999999996,0.14617188378378324,0.11056079999999989,0.14961295526315763
207.5466,0.11898,0.14831032222222174,0.14317,0.09900250810810811,0.1421556
207.9066,0.10947,0.13720177297297306,0.14052483513513528,0.0991907135135136,0.13089892631578975
208.2666,0.1042,0.14296506666666675,0.12893005675675617,0.09549816842105137,0.12692040270270272
208.6266,0.1156,0.14522,0.1151945333333335,0.09101023157894733,0.12072410810810848
208.9666,0.10926,0.1395976432432437,0.10988142162162168,0.08567759999999983,0.11553787105263166
209.3266,0.08171,0.11690193333333192,0.12389545789473767,0.08576656216216219,0.10822172432432421
209.6866,0.08171,0.0984618378378378,0.1189347361111113,0.07321699487179517,0.1083774849999999
210.0466,0.06967,0.10079860000000007,0.1135782081081081,0.07359528648648649,0.11133004473684172
210.4066,0.07675,0.11244911111111136,0.10114103783783827,0.05313587027027006,0.10296223243243255
210.7666,0.07495,0.12529020540540517,0.08961965135135133,0.05970129729729814,0.09729813513513476
211.1266,0.06872,0.10543860000000026,0.09162855277777764,0.05955647567567569,0.09247
218.1366,0.02364,0.03890393513513481,0.024292013513513348,0.022925600000000067,0.0148
218.3166,0.01139,0.04152123243243217,0.025754343243243286,0.0176035783783783,0.014079289473684236
218.6766,0.0361,0.04678840000000013,0.017005616666666327,0.005699059459459988,0.013725416216216233
219.0366,0.03926,0.042656000000000235,-0.0008510675675680699,0.022152032432432085,0.01707358000000003
219.3966,0.03378,0.030032454054053432,0.01067037027027105,0.00806923243243237,0.021330635135135074
219.7566,0.01614,0.02686908888888893,0.024529100000000196,0.007184648648648668,0.017033700000000224
220.1166,0.01139,0.027239944444444476,0.009913235135135114,0.00716,0.007319355555555575
220.4766,-0.00149,0.03337807567567568,0.01196,-0.002514508108108035,0.010741386842105866
220.8366,-0.00117,0.004813799999999823,0.012428561111111468,-0.004114345945945956,-0.012103143243242987
221.1966,-0.01268,0.0012834054054053402,0.020494628205128335,0.00127657297297281,-0.0016319891891895318
221.5566,-0.01838,0.014533633333333627,0.016663858974358826,0.0032655351351351353,0.009598031578947393
221.9166,-0.01131,0.01708,0.03213875999999896,-0.000913383783783491,-0.0005198631578944186
222.2566,-0.00561,0.031641599999999,0.04273542499999982,-0.015893094736842556,-0.008868527027026736
222.6166,-0.00561,0.01994539999999974,0.041300700000000024,-0.01652687567567599,-0.009177800000000005
222.9766,0.01308,0.02612093333333261,0.03109022222222264,-0.025956054054054024,-0.014065786842105032
223.3366,0.01012,0.040136962162162566,0.01286500540540487,-0.015685740540540102,-0.013061491891891916
223.6966,0.01678,0.05074101111111091,0.015394555555555295,-0.009592854054053947,-0.009792959459459677
224.0566,0.00632,0.049437822222221824,0.027355910810810576,-0.0200515999999999,-0.016552202631578757
224.4166,0.02111,0.043457783783783774,0.014299041666667275,-0.02714,-0.02011219999999995
224.5966,0.0399,0.04096115555555547,0.006803718918918969,-0.026977513513513882,-0.02035
224.7766,0.02786,0.03305115555555547,0.00160804324324316,-0.022915351351351303,-0.02035
225.1366,0.03261,0.050194177777777196,0.01543185675675576,-0.02398148108108099,-0.016228469230769486
225.4966,0.05574,0.07561064864864918,0.022725241666666694,-0.021089243243242926,-0.013416939473684225
225.8566,0.08889,0.08176374117647064,0.016799629729729905,-0.016181016216215767,-0.013786994594594593
226.2166,0.0947,0.09439785555555517,0.022583151351351426,-0.02589530810810805,-0.02009548378378389
226.5766,0.10483,0.0864782486486477,0.03209754444444456,-0.02943,-0.02273268421052575
226.9366,0.08572,0.0741152444444444,0.024491294594594537,-0.026771846153846316,-0.01533769999999999
227.2966,0.12331,0.09046031111111277,0.01885,-0.022217848648648782,-0.02221132702702687
227.6266,0.11803,0.11119535135135176,0.026924343243242894,-0.023574594594594732,-0.021080436842105064
227.9866,0.13017,0.10845306666666607,0.03285257027027027,-0.018465037837837962,-0.030072289189189236
228.3466,0.15129,0.10067,0.03797133611111081,-0.03024978378378413,-0.03104866756756766
228.7066,0.13682,0.09938567567567556,0.046003840540540644,-0.021784736842105405,-0.029306584210526336
229.0666,0.13682,0.0961956222222223,0.052616397222222215,-0.03332939459459457,-0.03994504324324363
229.4266,0.11254,0.0895105999999998,0.04840394736842118,-0.030100875675676108,-0.027013599999999978
229.7866,0.10715,0.09626184864864852,0.013502183783783782,-0.04364465945945917,-0.03388881500000057
230.1466,0.09659,0.10393657777777777,0.004239430555555181,-0.04288113513513513,-0.023682814999999607
230.5066,0.10758,0.07746417777777768,-0.01145895405405398,-0.05059162162162123,-0.02759610270270266
230.8666,0.07844,0.05990779459459425,-0.01353048333333331,-0.050015491891891924,-0.018887823684210096
231.0466,0.08076,0.050729166666666374,-0.015120483333333436,-0.04591570810810791,-0.017705824324324493
231.2266,0.0608,0.04610416666666674,-0.015743540540540522,-0.041031383783783855,-0.01918960810810808
231.5866,0.05236,0.04432363333333351,-0.016518975675675673,-0.05521562162162211,-0.01984
231.9466,0.05151,0.03145313513513621,-0.021597238888888374,-0.06271841081081066,-0.011528644736842314
232.3066,0.03737,0.012696133333333248,-0.02573351351351318,-0.04871738378378378,-0.008841502702702717
232.6666,0.02945,0.009885377777777782,-0.023123844444443493,-0.04858730810810787,-0.028529227027025886
233.0066,0.02491,0.005066454054054464,-0.03970422432432444,-0.03488703783783898,-0.04028992631578941
233.3666,0.01678,-0.004862088888888967,-0.03138463783783658,-0.02843,-0.04153395675675676
233.7266,0.0342,-0.008731211111111163,-0.00948,-0.02058957837837843,-0.041390586486486504
234.0866,0.0172,0.004718572972972639,-0.009264608108108117,-0.011379675675675511,-0.040192457894736855
234.4466,0.03494,0.019961777777778286,-0.0061210750000006905,-0.03350410810810678,-0.02893035945945968
234.8066,0.02691,0.01278,-0.0017635405405413166,-0.051536,-0.026977699999999948
235.1666,0.03166,0.024112843243242112,-0.03868994324324297,-0.05534959999999961,-0.02953219999999983
235.5266,0.03166,0.045026166666666693,-0.04632464999999998,-0.05348149189189183,-0.03639354864864828
235.8766,0.05204,0.03163440000000095,-0.05296240540540564,-0.04288875555555549,-0.046340613513513734
236.2366,0.04834,-0.002124705882353051,-0.0653344111111105,-0.045212540540540525,-0.04131175500000014
236.5966,-0.00444,-0.010541989189189317,-0.06450351891891931,-0.044168735135135154,-0.0436932972972973
236.9566,0.00358,-0.023652100000000682,-0.05429214999999997,-0.04358791351351354,-0.045326524324324484
237.3166,0.00516,-0.03169760000000089,-0.057554132432432355,-0.0402608000000005,-0.05158662105263154
237.6766,-0.02862,-0.03236559999999891,-0.06390764594594604,-0.038252488888888984,-0.05304986216216209
237.8566,0.00337,-0.015205600000001623,-0.054984075675676605,-0.048592488888888175,-0.05139094324324339
238.0166,-0.00202,-0.015130443243243488,-0.0470100216216214,-0.04817802162162105,-0.04991634864864858
238.3766,0.01139,-0.02976426666666667,-0.05322769722222229,-0.03855387027027017,-0.04965
238.7366,0.00125,-0.029247866666666622,-0.05072819999999987,-0.04419829189189191,-0.06606835000000026
239.0966,-0.02261,-0.026617697297297554,-0.05354073888888875,-0.047975113513512864,-0.07554144324324298
239.4566,-0.01838,-0.01966361111111114,-0.05539979459459468,-0.06133436756756755,-0.059805762162162365
239.8166,-0.01743,-0.01970649999999933,-0.05789819999999997,-0.06453,-0.04128252972972979
240.1666,-0.0168,-0.04405743783783795,-0.06826014864864813,-0.06479114594594534,-0.038782668421052505
240.5266,-0.0018,-0.04550060000000058,-0.07062,-0.07784844324324297,-0.04940129189189207
240.8866,-0.01807,-0.058798200000000356,-0.08897100270270229,-0.09350268108107991,-0.05196081666666669
241.2466,-0.04002,-0.05005,-0.10248409729729738,-0.051326248648647536,-0.04950687894736839
241.6066,-0.04721,-0.05474751351351232,-0.07808550555555789,-0.03483150270270305,-0.04837670000000002
241.9666,-0.04721,-0.08135702222222203,-0.04727927058823475,-0.018908648648648614,-0.04687834594594593
242.3266,-0.06557,-0.09261657777777522,-0.04759492972973019,-0.04283036756756838,-0.057163516216217
242.6666,-0.09081,-0.05178648648648805,-0.05048006666666661,-0.0513909684210511,-0.06299095789473734
243.0266,-0.04098,-0.019470211111111056,-0.04985105000000022,-0.050290162162162415,-0.05478384594594596
243.3766,-0.04309,-0.022322399999999968,-0.054827954054054114,-0.044187124324324326,-0.05812095897435892
243.7366,-0.01944,-0.016654222222222282,-0.05492113055555519,-0.031392594594593794,-0.060204965789473076
244.0966,-0.01247,-0.03362555675675685,-0.043010967567567865,-0.03681248648648642,-0.04916421081081067
244.2766,-0.03105,-0.0411077189189192,-0.037767858333333335,-0.04220659999999997,-0.05100312972972977
244.4566,-0.04985,-0.04848684705882302,-0.03803285833333336,-0.03937159999999997,-0.05101764054054006
244.8166,-0.05502,-0.03263082222222246,-0.023025321621621526,-0.03758702702702702,-0.04289
245.1766,-0.04816,-0.01886389999999981,-0.024569866666666967,-0.03684662702702696,-0.04305081621621635
245.5366,-0.04266,-0.015982681081080998,-0.040196094594594,-0.025667600000000117,-0.045554600000000015
245.8966,-0.05438,-0.020772488888889048,-0.03877272777777771,-0.024232713513513755,-0.04052646216216213
246.2566,-0.04594,-0.04051355555555556,-0.029642575675675836,-0.03158099459459451,-0.03936862432432436
246.6166,-0.0452,-0.04123408888888873,-0.022750291666666454,-0.03291,-0.04179770000000005
246.9466,-0.0377,-0.0224974222222222,-0.01936,-0.031360010810810954,-0.037361432432432624
247.3066,-0.05375,-0.01438468108108086,-0.02100644722222228,-0.023841394594594032,-0.024687470270270406
247.6666,-0.03358,-0.016264799999999874,-0.023971586486486403,-0.019362713513513322,-0.021174188888889552
248.0266,-0.04763,-0.01648,-0.023008494444444482,-0.029859777777777777,-0.01277238947368435
248.3866,-0.04763,-0.009258000000000374,-0.028782254054053415,-0.030332724324324233,-0.002300845945946716
248.7466,-0.05724,-0.0022745405405407053,-0.036578933333333556,-0.02457904864864914,0.013684548648648867
249.1066,-0.02208,-0.016983288888888375,-0.018280589189190122,-0.0017360000000001454,0.027553937837837675
249.4566,-0.04277,-0.01987004444444445,-0.0008985222222214371,0.005099167567567554,0.0503923657894753
249.8166,-0.04172,-0.001798866666666784,0.009825845945945771,0.007684832432432122,0.08080118918918948
250.1766,-0.03147,0.014811675675676112,0.020270725000000225,0.025674864864865005,0.11113961025641095
250.5366,-0.0263,0.0369565333333312,0.0393176459459459,0.04074060540540512,0.13393169736842064
250.7166,-0.01606,0.03959340000000029,0.04395386216216224,0.04398547027027006,0.1395922236842104
250.8966,-0.00159,0.03260339999999974,0.05025144722222245,0.04833303783783755,0.14402128648648654
251.2366,0.00073,0.03132763333333334,0.06316839189189193,0.06824601081081201,0.15623857567567576
251.5966,0.00305,0.055975600000000195,0.074754758333334,0.08084254444444418,0.17472
251.9466,0.00474,0.0647583333333333,0.11468454594594564,0.0954942486486479,0.1749063972972973
252.3066,0.00685,0.05463493333333281,0.12149910833333336,0.10814263783783755,0.17730111052631609
252.6666,0.00875,0.06825027058823527,0.11319966486486505,0.11895450810810804,0.18706074594594593
253.0266,0.02533,0.09515772222222237,0.09828850833333382,0.1128815351351349,0.19816839189189198
253.3866,0.04539,0.09589760000000036,0.12852,0.11166,0.20076475945945976
253.7466,0.05014,0.09543286666666669,0.12720491944444529,0.0949686054054054,0.18949213421052633
254.1066,0.02564,0.08343013333333411,0.1037276243243245,0.08023031351351423,0.17529108157894782
254.4566,0.02776,0.07937,0.09896951621621615,0.06476488888888826,0.1576360891891888
254.8166,0.02776,0.0870436324324324,0.09588598888888886,0.07259232432432429,0.12645801052631653
255.1566,0.00801,0.08464624444444463,0.08471061081081066,0.07006065945945951,0.11273564864864913
255.5166,0.02343,0.083809888888889,0.08482510833333336,0.0652317297297297,0.09920555135135065
255.8766,0.03831,0.08100188888888903,0.07637710000000038,0.04943794594594675,0.08631533421052662
256.2266,0.05056,0.08863617297297331,0.05567945000000027,0.04731555789473663,0.07944711621621615
256.5866,0.05595,0.07585786666667085,0.042644077777778525,0.036169199999999554,0.06987415135135276
256.9466,0.05394,0.06746346666666636,0.03185098888888876,0.03911029999999996,0.056853183783785045
257.3066,0.04613,0.07084853333333274,0.039169572972973354,0.031832594594593415,0.045829448648648394
257.4866,0.04211,0.06235786666666643,0.040188252777777635,0.023465027027025635,0.043783263157896705
257.6666,0.04591,0.058537866666666424,0.03842325277777763,0.019724832432431783,0.054393789473685124
258.0266,0.02755,0.051144583783784586,0.018409451351353676,0.022036551351350842,0.06833211081081031
258.3866,0.03758,0.041169500000000143,0.025410058333331882,0.02668978378378388,0.07206
258.7366,0.0494,0.048389835294118944,0.005873870270271673,0.021864129729729807,0.07612374750000049
259.0766,0.02638,0.056921266666666845,0.006084099999999487,0.03366759999999816,0.08383317837837792
259.4366,0.03515,0.030385711111110623,0.033949659459460574,0.06758777297297214,0.08807117027027032
259.7966,-0.00064,0.009107870270270485,0.0601631583333342,0.08313,0.09254355135135078
260.1466,0.01456,0.0405404444444431,0.06782,0.08372571891891853,0.115355348648646
260.5066,0.0531,0.07092791111111124,0.06873859444444434,0.09148224864864636,0.14095580000000146
260.8666,0.08752,0.06754,0.09110324722222325,0.12249338378378598,0.17000165000000295
261.2266,0.08752,0.08943457777778027,0.12155635945946222,0.1481474000000035,0.2104510111111243
261.5866,0.08319,0.11781372972972966,0.15242711111110976,0.17976857297297155,0.3037565999999999
261.9466,0.0986,0.14493977777777806,0.1819724972972967,0.21137125405405346,0.3487181351351361
262.2966,0.1288,0.1866982000000011,0.22963517500000105,0.2422000756756774,0.38948840540540847
262.6366,0.18972,0.21332231111110975,0.2833993837837806,0.29273142702702437,0.42772262702702674
262.9966,0.19468,0.2478913333333323,0.35441328888888146,0.36768530526315496,0.45227715526315876
263.3566,0.23776,0.30677611891892387,0.4059863444444448,0.37744410810810813,0.4641472756756764
263.7066,0.2461,0.34828137777777735,0.42147547567567384,0.3927938666666644,0.46458607297297305
263.8866,0.2594,0.37238159999999865,0.43306358378378224,0.3996854162162155,0.45969827567567617
264.0666,0.26922,0.3806454444444447,0.44437539722222075,0.4056789297297301,0.45017287027027053
264.4266,0.27334,0.3701529647058823,0.44889463513513495,0.41639683243243325,0.436809135135135
264.7866,0.25497,0.3627517777777767,0.43016427222222037,0.3803900216216166,0.405952667567566
265.1466,0.2272,0.34767111111111243,0.4012309138888908,0.3567312108108113,0.39138
265.4966,0.23607,0.3289631333333344,0.35641296486486496,0.33536476666666654,0.3669545027027034
265.8566,0.20355,0.3053808540540537,0.3250789444444442,0.29479204324324215,0.324411851351351
266.1966,0.17779,0.27692479999999875,0.31126132702702786,0.260645016216218,0.27727381081081504
266.5566,0.16702,0.24101359999999925,0.30385,0.24848,0.23346871081081183
266.9066,0.12447,0.21926133333333245,0.296003586486482,0.24286246486486468,0.2070466081081079
267.2666,0.13967,0.20718,0.25630022500000066,0.2109000000000023,0.1717287324324351
267.6266,0.13967,0.2001682702702683,0.20347807500000042,0.174267827027026,0.13978188947368378
267.9866,0.10114,0.17199633333333195,0.1713938783783785,0.15777430270270196,0.11376623333333254
268.3466,0.0835,0.15304951111110862,0.15680819999999962,0.13992046486486232,0.09663089729729497
268.6966,0.06925,0.12965669999999993,0.14446372702702556,0.11945209729729744,0.08182243333333328
269.0566,0.05922,0.1300685000000001,0.11472197499999981,0.10178613333333321,0.07603400526315864
269.4166,0.07368,0.11774729999999464,0.11057389999999895,0.09367109473684256,0.062155200000000015
269.7566,0.06049,0.08020217297297315,0.0931752916666669,0.07858423783783822,0.058332497297297635
270.1066,0.04465,0.09891051111110949,0.07455723611111084,0.0767404540540539,0.05520274054054065
270.2866,0.05003,0.08642302499999996,0.0828723916666669,0.08181937297297295,0.052057067567567276
270.4666,0.04095,0.08389501111111067,0.09125739166666691,0.08546696216216221,0.04848139189189096
270.8266,0.05046,0.06741684444444446,0.0900858594594596,0.08178533333333672,0.03641970540540517
271.1866,0.04475,0.07114305555555565,0.07643700277777728,0.05482572972973001,0.02954308918918894
271.5366,0.0362,0.08713699999999962,0.07828505675675698,0.061757718918919256,0.040058670270271685
271.8966,0.03621,0.07682346666666565,0.05645434166666821,0.06481979459459476,0.04373
272.2566,0.03557,0.08448286666666645,0.07191693055555433,0.06100370810810815,0.04887641842105268
272.6166,0.02058,0.07745553513513484,0.07566819999999991,0.05868986666666661,0.04841802702702686
272.9466,0.05901,0.06968715675675693,0.06238915277777761,0.049669866666667395,0.05732284864864835
273.3066,0.04359,0.06811422222222226,0.05908,0.04932,0.06410768108108104
273.6666,0.03378,0.07311386666666655,0.07565180000000143,0.05991901621621595,0.06039068648648636
274.0266,0.03378,0.07324,0.0961118333333315,0.07634608648648622,0.07172880540540269
274.3766,0.04866,0.08782630000000008,0.09323424999999981,0.08115893333333345,0.09446913513513434
274.7366,0.06323,0.09617431111111115,0.10150150810810889,0.09797971891891993,0.12548920526315735
275.0966,0.06988,0.10422550270270295,0.1316593333333357,0.11498316756756888,0.16256425000000063
275.4566,0.06133,0.11560765405405436,0.14834417567567487,0.1302914918918911,0.20311899999999672
275.8066,0.08688,0.10909008648648647,0.15640760833333306,0.15300066666666612,0.23357996756756616
276.1666,0.1137,0.1382064111111113,0.1899119611111133,0.20237593333333373,0.26705784594594645
276.5066,0.11539,0.17583116666666831,0.22227996486486545,0.2670645513513458,0.31684518378378695
276.6866,0.1364,0.18144295555555576,0.23426420555555705,0.29588602162161926,0.34719221081081475
276.8566,0.15129,0.18625808888888992,0.2517269833333358,0.3115030486486476,0.3764584810810881
277.2166,0.16691,0.22037988888889204,0.3054939702702756,0.3533508444444478,0.4449272351351456
277.5766,0.18666,0.25095382222222007,0.33703320555555505,0.42213759999999945,0.5260613999999997
277.9366,0.22688,0.2992181999999962,0.39030688611110553,0.49954730810810943,0.616976748648651
278.2866,0.22519,0.3342385333333362,0.4631043162162203,0.5867205081081156,0.724124045945954
278.6466,0.24926,0.3596073405405399,0.5393373833333324,0.6933375999999922,0.72991
279.0066,0.30184,0.4217509777777763,0.6235139833333324,0.8024854378378309,0.8548392578947354
279.3666,0.36551,0.4855758222222209,0.7277445540540542,0.9234751459459412,1.0061212918918947
279.6966,0.4032,0.570111644444446,0.7895,1.00159,1.190669472972965
280.0566,0.47341,0.6619781176470604,0.8510196702702623,1.0518906222222177,1.407004259459457
280.4166,0.47341,0.6814,1.0160869472222265,1.2241215891892057,1.6527268810810847
280.7666,0.5659,0.7988371333333322,1.2086353416666642,1.3957162054054029,1.9078733864864619
281.1266,0.65459,0.9507495333333381,1.4058187756756753,1.564340054054056,2.166477335135118
281.4866,0.74211,1.0832117333333373,1.5957158583333366,1.7474713333333396,2.4397714297297175
281.8466,0.8459,1.2357518666666718,1.8205664250000035,1.944780324324331,2.860702600000003
282.1966,0.96521,1.38058829189188,2.0298048918918816,2.115605654054043,3.1412200675675717
282.5366,1.04207,1.505688177777788,2.1858506861111313,2.2628313666666684,3.2368696918919007
282.8966,1.08008,1.619174733333331,2.3797369333333225,2.3733631789473697,3.267866370270271
283.2466,1.1372,1.6940512444444449,2.4512218352941173,2.47336977777778,3.188647934999999
283.4266,1.15219,1.7244420444444448,2.4298759529411735,2.4432442810810766,3.107800935000003
283.6066,1.09465,1.7404397777777774,2.392305864864854,2.4123377945945896,3.0013894771428573
283.9666,1.05791,1.6738109555555492,2.2737183444444256,2.2830554162162016,2.7317249435897133
284.3166,0.9688,1.569480533333329,2.1096959000000024,2.1695152000000024,2.4734317799999848
284.6766,0.93786,1.4311856,1.8914527783783797,1.9680797513513508,2.146501266666657
285.0366,0.82975,1.2972602666666562,1.687717038888886,1.735789794594588,1.8948
285.3966,0.75025,1.1491222888888921,1.4927526333333558,1.5326272000000207,1.8790981783783862
285.7266,0.6719,1.020174166666659,1.3175588243243066,1.3519470666666478,1.633524664864845
286.0866,0.60117,0.9200117444444521,1.14173,1.1661762270270273,1.4117301000000129
286.4366,0.52652,0.8164800888888876,1.1376478166666684,1.11424,1.2153727621621637
286.7966,0.52652,0.75499,0.980159159459461,1.0307060666666592,1.0484492837837809
287.1566,0.47489,0.7000259999999879,0.8427072675675655,0.9059401297297205,0.8938740263157796
287.5166,0.40975,0.624348000000002,0.7643221916666656,0.8042430054054105,0.7631533594594673
287.8666,0.40003,0.5708046666666681,0.663998522222218,0.7025736222222246,0.6745363675675685
288.2266,0.37755,0.508896399999997,0.578381913513508,0.5997920000000005,0.5817854081081067
288.5866,0.32359,0.4496695555555569,0.5167043750000055,0.5268414162162239,0.48039271578948534
288.9166,0.2953,0.3915955176470566,0.4738214333333339,0.4909556108108102,0.42011517837837914
289.2766,0.27967,0.3491844888888903,0.44005800540541007,0.4571416000000011,0.3728822783783814
289.6266,0.27988,0.34124540000000014,0.3905988944444429,0.42012648421052595,0.3345759108108088
289.8066,0.28495,0.34318040000000016,0.3780468055555548,0.39845839999999827,0.31811807297297057
289.9866,0.2859,0.3405079999999998,0.36929680555555483,0.3763604972972957,0.30431185405405176
290.3466,0.28664,0.3350714,0.3628340783783781,0.33933848888888707,0.2702974756756708
290.7066,0.31621,0.34238119999999894,0.37274304999999874,0.3210099999999992,0.23799735675675704
291.0566,0.33426,0.36012554444444556,0.3715561611111108,0.32643943783783796,0.2242591189189185
291.4166,0.35886,0.37946151111111226,0.3739514852941179,0.32541513333333344,0.21271287837837796
291.7466,0.38356,0.40232195555555483,0.3912818837837833,0.33436174054054224,0.20722
292.1066,0.43773,0.437508000000001,0.41274402499999974,0.3628822594594627,0.2074280702702703
292.4666,0.53623,0.489129644444456,0.47421990000000774,0.40022556666667125,0.20519026486486364
292.8166,0.6624,0.5845228823529398,0.49866,0.4375,0.18590652162162083
293.1766,0.6624,0.67172,0.5379531027777803,0.43998191351351384,0.2018463567567556
293.5366,0.80905,0.7114904333333464,0.6208215055555595,0.49233380000000226,0.24214529999999987
293.8866,1.02022,0.8561128444444399,0.729248924999989,0.562518522222215,0.28424935405404933
294.2466,1.29557,1.0750870222222173,0.9075509756756795,0.6176060972972932,0.3549137135135182
294.5866,1.71335,1.3358897333332984,1.1511815999999966,0.7247163058823439,0.44190300540540467
294.9366,2.26649,1.7474056555555837,1.4668089055555606,0.8641292216216183,0.5590535621621676
295.2966,2.89142,2.2514755351351714,1.8630595000000119,1.0434810702702708,0.7549671666666805
295.6466,3.53357,2.804415699999974,2.280105549999962,1.225160266666643,0.8757960081081041
296.0066,4.08669,3.356513999999973,2.8303349499999353,1.4140379351351402,0.9292082567567563
296.1866,4.52675,3.6396139999999733,3.0851467000000237,1.5391557111111274,0.9502312837837839
296.3666,4.80506,3.958947799999963,3.1964672750000127,1.611645410526321,0.9780826351351359
296.7166,5.146,4.49284338181821,3.3276576729729794,1.6763911000000074,0.9889786189189181
297.0566,5.25549,4.675534499999999,3.363719869444444,1.6745760216216212,0.9594738135135142
297.4166,5.21316,4.721312799999989,3.3228917470588177,1.6511587675675665,0.9012051702702696
297.7666,4.89173,4.597658962162167,3.162685550000003,1.5952671111111167,0.8146886675675782
298.1266,4.39309,4.273138799999997,2.866925110810812,1.4869010270270344,0.75468
298.4866,3.74789,3.806072199999997,2.485461624999994,1.3058275783783853,0.7091866486486467
298.8366,3.16677,3.230114000000062,2.20294,1.108955522222235,0.5982312054054048
299.1966,3.16677,2.72568,2.086083119444471,1.02226,0.4806020594594562
299.5466,2.65103,2.696770855555527,1.7211519864864604,0.9375488216216095,0.3827495135135062
299.8866,2.19183,2.233434266666686,1.4049711000000034,0.7713384000000039,0.3031626054054053
300.2366,1.8221,1.8438453777777861,1.153060661111108,0.6149339567567549,0.23721079999999675
300.5966,1.53915,1.4997758888888435,0.9554257459459429,0.5032375675675643,0.1768492675675638
300.9566,1.28121,1.236878577777792,0.7985992888888997,0.4202098000000091,0.1292399027027049
301.3066,1.11112,1.0840318666666524,0.6858514416666578,0.3400448648648661,0.08979690000000012
301.6666,0.96046,0.9147283111111011,0.5571976999999932,0.28396909999999576,0.051142851351350785
302.0266,0.81528,0.7954478222222331,0.45950824864865564,0.2391266810810836,0.025894202702705475
302.3766,0.6718,0.6513120666666693,0.3828737083333361,0.1865681189189186,0.033696638888888616
302.7166,0.5885,0.5980642888888885,0.3138820416666656,0.1615919999999984,0.030222270270270187
302.8966,0.58628,0.5474764444444531,0.30502402777777754,0.1521420000000014,0.0219392513513542
303.0666,0.53824,0.497231999999998,0.3151197833333342,0.14920130526315625,0.011339521621623605
303.4266,0.4882,0.45758479999999613,0.2863993944444432,0.13275258378378388,-0.007148772972973965
303.7866,0.46275,0.40853879999999865,0.24107474324324346,0.12698181111111087,-0.011183554054054013
304.1366,0.42991,0.36770127777778194,0.21302744594594492,0.10883885405405334,-0.017326781081081204
304.4966,0.42643,0.3347160117647059,0.20009974444444392,0.08678155675675549,-0.013509651351350951
304.8466,0.38947,0.31850479999999953,0.21136987500000082,0.08782050810810825,-0.00989
305.1866,0.34197,0.3234639999999995,0.17091690833333512,0.0973631333333334,-0.01617047567567579
305.5366,0.34197,0.28196243333332904,0.16567,0.0811379027027016,-0.02805699729729807
305.8966,0.32486,0.27367,0.17931309166666645,0.07756,-0.03949855135135064
306.2566,0.27946,0.2636802000000006,0.1481925888888883,0.06725438918919018,-0.04745665675675652
306.6066,0.28442,0.244581555555556,0.12224227222222125,0.0642489764705882,-0.06036100540540555
306.9666,0.2537,0.2143381777777743,0.09942642499999908,0.056147729729728965,-0.07844747837837841
307.3166,0.23184,0.18957517777777766,0.08467099729729824,0.04156200000000078,-0.0786518810810812
307.6566,0.18708,0.1588449555555535,0.05583599999999641,0.030324248648648404,-0.07961413783783818
308.0066,0.1931,0.13583945882352932,0.05853899166666697,0.011747394594596524,-0.08822943513513497
308.3666,0.14759,0.13063786666666666,0.05763333333333316,0.010147466666666953,-0.08667412162162244
308.7266,0.18127,0.1264270666666665,0.048358335135134885,0.012021686486486136,-0.09890805555555869
309.0766,0.13207,0.11854097777777868,0.025346650000000758,0.010253600000000005,-0.11817860000000001
309.2566,0.13492,0.10834374444444664,0.021903111111111782,0.009351344444444378,-0.11799373513513513
309.4366,0.11539,0.09123874444444395,0.03118078888888834,0.0030863444444443793,-0.11780773888888887
309.7866,0.11972,0.08279391111110482,0.01980764722222231,-0.0036935157894732178,-0.11708829444444441
310.1266,0.07653,0.06105846666666664,0.021377433333333248,-0.004148999999999162,-0.12643028648648616
310.4766,0.05299,0.059345919999999684,0.012751127777776962,-0.013881297297297304,-0.13214605135135143
310.8366,0.0645,0.049230177777778064,0.0027321675675676805,-0.016892833333332517,-0.1443641459459444
311.1966,0.05384,0.042296266666666735,0.0005846499999999979,-0.02823251891891915,-0.14526847297297316
311.5466,0.05658,0.03712032941176422,-0.015018750000000455,-0.03833837837837841,-0.14481
311.9066,0.05658,0.022618699999997965,-0.03083,-0.035776666666665846,-0.1475833054054058
312.2566,0.04085,0.01655,-0.033237822222222005,-0.02893,-0.14763224324324317
312.5966,0.02279,0.011117466666666374,-0.025373910810808156,-0.029783066666666812,-0.15059446756756828
312.9466,0.02311,0.013728399999999866,-0.01037572499999998,-0.033807643243243056,-0.15085800810810807
313.3066,0.03378,0.02205714444444478,-0.017468574999999802,-0.037685437837836996,-0.15745432162162226
313.6566,0.00305,0.010391533333331076,-0.030585416666667167,-0.05194066666666529,-0.16581918918918903
314.0166,-0.02239,0.00045899999999963505,-0.03944017027027053,-0.04297198918918911,-0.16953745135135082
314.3766,-0.00835,-0.016132866666667026,-0.05124938484848503,-0.04733864444444448,-0.17743710810810806
314.7266,-0.01669,-0.02721829090909016,-0.05673469459459461,-0.053499729729729745,-0.17978297837837845
315.0666,-0.01817,-0.028436288888888078,-0.045539041666667925,-0.05395918918918917,-0.18083479444444464
315.4166,-0.02313,-0.026055166666666185,-0.030553686111112737,-0.057334711111111034,-0.18229682631578914
315.5966,-0.02662,-0.018647233333333905,-0.039248686111112735,-0.056798735135135024,-0.18781540000000005
315.7766,-0.02377,-0.02123223333333309,-0.042399644444444766,-0.05573332972972977,-0.18803007567567567
316.1266,-0.03042,-0.024408711111111085,-0.04177427499999949,-0.0676957176470586,-0.1861861054054049
316.4866,-0.01384,-0.03389484444444452,-0.05146631621621631,-0.06600717777777775,-0.17865963243243338
316.8366,-0.03031,-0.023432822222223766,-0.05128844444444294,-0.08246346666666413,-0.1898741783783782
317.1966,-0.06241,-0.02286872222222234,-0.06256146944444449,-0.07954829189189261,-0.1953889
317.5266,-0.03274,-0.043182711111109454,-0.06548070000000002,-0.08004968888888875,-0.19505890000000004
317.8866,-0.05745,-0.05828105454545445,-0.06510767777777782,-0.08774607567567566,-0.19582642972972972
318.2366,-0.05745,-0.05124439999999938,-0.06463,-0.09221040000000012,-0.19592
318.5966,-0.06896,-0.03983,-0.06480773333333328,-0.09902635555555608,-0.19640013243243246
318.9466,-0.07561,-0.047086111111110406,-0.07149662222222232,-0.10211,-0.2143788432432418
319.3066,-0.05903,-0.06453495555555647,-0.09934241944444437,-0.1038536333333332,-0.21762775277777796
319.6666,-0.05913,-0.07410685555555555,-0.10245146388889062,-0.11317141621621704,-0.21906741621621645
319.9966,-0.08701,-0.06815566666666706,-0.11564229722222281,-0.1200422666666668,-0.2161261864864861
320.3466,-0.06452,-0.05251059999999956,-0.09253577499999832,-0.12695258378378496,-0.21230101351351321
320.7066,-0.0773,-0.04740970000000003,-0.08827250000000027,-0.12767693333333402,-0.20979382702702706
321.0666,-0.0717,-0.05437653333333373,-0.09915552499999894,-0.11648299459459485,-0.21695411351351368
321.4166,-0.08004,-0.06661620000000121,-0.09959859999999998,-0.11313623783783788,-0.22342831081081066
321.7766,-0.08796,-0.08407149999999855,-0.09698012222222234,-0.12254406666666384,-0.2251153972972968
322.1066,-0.11858,-0.09617599999999898,-0.1137428083333342,-0.13076818378378374,-0.23186783513513537
322.2866,-0.1038,-0.080200999999999,-0.12501842777777872,-0.11920926486486277,-0.23580351081081116
322.4566,-0.09018,-0.0760326444444428,-0.13605898333333122,-0.11832375555555569,-0.23181128333333495
322.8166,-0.10137,-0.08804920000000009,-0.10748081666666673,-0.1366617081081081,-0.22705506216216287
323.1666,-0.08532,-0.06833817777778103,-0.11548462777777924,-0.1340135333333327,-0.22003424324324322
323.5266,-0.085,-0.10142141714285631,-0.1228845081081079,-0.13636952941176475,-0.22068394594594595
323.8866,-0.09387,-0.1031754941176492,-0.140822345454546,-0.13448002162162154,-0.2260777729729732
324.2366,-0.08733,-0.08493653333333363,-0.12464650810810578,-0.12666475555555498,-0.23372800270270214
324.5666,-0.08733,-0.09370169999999953,-0.11873760833333336,-0.119097016216216,-0.22707
324.9266,-0.09862,-0.10201,-0.11915,-0.13071388108108115,-0.22707
325.2766,-0.0963,-0.09920964444444487,-0.12381880277777693,-0.14218820540540422,-0.23849224054053983
325.6366,-0.1265,-0.08789055999999902,-0.11804685555555577,-0.14228,-0.24335042499999976
325.9866,-0.10433,-0.11743182222222219,-0.12522840000000132,-0.1477882810810808,-0.24323872432432433
326.3466,-0.10021,-0.10251382222222509,-0.1382380250000006,-0.1309153333333315,-0.2386800702702702
326.6766,-0.10834,-0.11935106666666553,-0.13280406216216215,-0.12001092972972913,-0.22157865405405486
327.0366,-0.12227,-0.10181580000000108,-0.13174118333333354,-0.13098947777777867,-0.22988347837837816
327.3866,-0.11436,-0.11743213333333362,-0.13104889722222296,-0.12076718918919005,-0.22987721081081094
327.7466,-0.11024,-0.12507042285714262,-0.13276282222222316,-0.12437579999999954,-0.22229660810810767
328.0966,-0.12829,-0.11608579999999936,-0.14579244411764714,-0.13906340540540538,-0.21339150588235223
328.4566,-0.12153,-0.1031339333333264,-0.150943355555555,-0.14465588888888883,-0.22749586486486228
328.6366,-0.15627,-0.13384893333333125,-0.15522335555555566,-0.1438912864864864,-0.23828666216216216
328.8066,-0.15511,-0.15791617777777647,-0.1575631722222224,-0.14151588108108085,-0.23835558108108107
329.1466,-0.14751,-0.13674273333333356,-0.1678689499999988,-0.14501883333333293,-0.2459692842105237
329.4966,-0.17253,-0.15095711111111038,-0.16169926111111124,-0.1388180000000001,-0.2510122162162162
329.8566,-0.18182,-0.14405457777777794,-0.16014261621621617,-0.1417859777777777,-0.23980860555555447
330.2066,-0.14339,-0.15047942222222258,-0.16132947499999997,-0.13545049729729766,-0.2354215027027026
330.5666,-0.14159,-0.1464293333333319,-0.15700642499999978,-0.13162976666666676,-0.23754395405405404
330.9166,-0.14159,-0.16628189999999807,-0.15161798333333382,-0.1292124705882353,-0.2341745189189186
331.2466,-0.15437,-0.15030439999999945,-0.1601,-0.12749649729729742,-0.23034
331.6066,-0.15585,-0.14891,-0.1621001222222222,-0.13761804444444575,-0.2308040297297298
331.9566,-0.17749,-0.1419996114285724,-0.16400084411764768,-0.15531,-0.23256660833333376
332.3166,-0.19608,-0.13841759999999995,-0.14425122777777766,-0.15218299999999974,-0.2313191135135112
332.6666,-0.19153,-0.1386328777777778,-0.1463135611111111,-0.13754646486486305,-0.25819414054054035
333.0266,-0.1701,-0.14763636470588234,-0.14918793055555543,-0.12832831111110862,-0.2683107
333.3566,-0.17823,-0.16355995428571535,-0.15259838611111134,-0.15143132972972972,-0.2573315108108096
333.7166,-0.17475,-0.16414166666666657,-0.15668797027026996,-0.15072906666666688,-0.25815972972972995
334.0666,-0.19713,-0.16816391111111076,-0.15059662499999998,-0.15578632432432438,-0.26186777297297303
334.4266,-0.1738,-0.14937864444444302,-0.15139008611111154,-0.1549670888888888,-0.25632399444444426
334.7766,-0.1833,-0.1584783999999993,-0.15456381666666746,-0.1547298162162159,-0.27256026486486296
334.9566,-0.16081,-0.1580589371428576,-0.14415381666666746,-0.1581644108108106,-0.2706201324324342
335.1266,-0.16978,-0.15414408000000035,-0.1350948249999999,-0.1623623555555557,-0.2594047270270279
335.4666,-0.16978,-0.15060288888888854,-0.14367982500000037,-0.187711244444446,-0.2606147486486491
335.8166,-0.16619,-0.1647864888888886,-0.15370380000000147,-0.15928069189189337,-0.25534510526315796
336.1766,-0.18098,-0.1614099555555557,-0.17131840000000115,-0.1579526333333333,-0.2664067027027019
336.5266,-0.19502,-0.16379825142857118,-0.15177189705882616,-0.16139597894736843,-0.270265208333334
336.8866,-0.18446,-0.16211728888888896,-0.16393677500000048,-0.16806991111111116,-0.26642857297297295
337.2366,-0.18446,-0.1548605555555555,-0.17389637500000069,-0.17185145882352937,-0.2705551837837843
337.5666,-0.21381,-0.15547711111111084,-0.15794963333333356,-0.16676040000000053,-0.27537534864864865
337.9266,-0.22078,-0.15655,-0.15524,-0.16870493333333353,-0.27595
338.2766,-0.20832,-0.1806115272727235,-0.16845076944444218,-0.16505734054054072,-0.27947164999999896
338.6366,-0.22627,-0.19757586666666657,-0.186602147222222,-0.16356,-0.29053659189189135
338.9866,-0.19956,-0.17908005555555387,-0.1848453567567564,-0.1627098111111111,-0.29542764324324333
339.3466,-0.22553,-0.18341444444444543,-0.1799887499999997,-0.16748619459459477,-0.2915057108108108
339.6766,-0.23704,-0.19177259428571466,-0.18826642499999985,-0.1704479666666667,-0.28403219729729695
340.0266,-0.24242,-0.2061034222222218,-0.18326140882353037,-0.17676639999999993,-0.29235803333333327
340.3866,-0.25721,-0.21407039999999997,-0.1903538166666661,-0.18871117777777785,-0.2998598
340.7366,-0.23936,-0.21523986666666667,-0.21011892499999973,-0.1944308972972973,-0.30048412432432436
341.0966,-0.22067,-0.21792254545454567,-0.2226261750000008,-0.2012321444444453,-0.3056431405405409
341.2666,-0.2477,-0.21615130000000082,-0.22435074722222215,-0.20808408888888782,-0.305523872972973
341.4466,-0.22986,-0.20759630000000082,-0.22201574722222214,-0.21259924324324272,-0.3050519810810811
341.7766,-0.26977,-0.21520279999999714,-0.2122407888888898,-0.21449966666666773,-0.3131794756756748
342.1366,-0.25594,-0.22408668235294102,-0.21982644999999706,-0.20790573333333356,-0.30437269117647053
342.4866,-0.24116,-0.23216653333333387,-0.2491982388888898,-0.20821803428571464,-0.2964425105263151
342.8466,-0.23894,-0.2462848000000004,-0.2556498666666663,-0.21001413333333305,-0.29571978108108127
343.1966,-0.27536,-0.23523018888888922,-0.25062691666666675,-0.2180358666666672,-0.30466871666666634
343.5466,-0.27536,-0.2404379515151528,-0.239760022222222,-0.2155762486486502,-0.3018575324324323
343.8866,-0.27061,-0.25241312222222223,-0.23883178823529347,-0.2255590555555555,-0.29729302972972993
344.2366,-0.23767,-0.25165,-0.24657,-0.21664712432432418,-0.30241845135135115
344.5966,-0.28603,-0.24654222857142788,-0.23922426111111048,-0.21474316666666712,-0.3077
344.9466,-0.26618,-0.23024377777777943,-0.2227504750000004,-0.22143,-0.3056563055555557
345.2966,-0.26608,-0.23346180000000089,-0.22800940833333685,-0.2219331999999999,-0.3003303918918913
345.6566,-0.2269,-0.2458413999999997,-0.2481810749999996,-0.22491213333332757,-0.306828989189192
345.9866,-0.29817,-0.24967056000000024,-0.24331673055555547,-0.1863571333333309,-0.32107615945945933
346.3366,-0.27452,-0.24634409411764896,-0.23536116944444574,-0.2152417189189174,-0.3171159583333337
346.6966,-0.27959,-0.2619909333333321,-0.24286966388888542,-0.2197639333333332,-0.31320172702702676
347.0466,-0.26502,-0.27543550857142884,-0.27619129411764676,-0.218268627027027,-0.3193211918918919
347.4066,-0.27589,-0.26234560000000084,-0.2721885527777777,-0.23057940000000007,-0.32952428378378407
347.7366,-0.27199,-0.2702332555555555,-0.272043552777778,-0.26006927058823587,-0.3386782250000001
347.9166,-0.27505,-0.2696382555555555,-0.27305855277777796,-0.25584970810810703,-0.33593322499999967
348.0866,-0.25932,-0.2728045777777771,-0.27868044444444356,-0.24337997837838046,-0.33314730000000004
348.4466,-0.25964,-0.28109153142857124,-0.2935627555555561,-0.25128311111110985,-0.32140653243243233
348.7966,-0.26312,-0.28171379999999957,-0.27728585000000033,-0.2525763999999998,-0.317121397297297
349.1566,-0.2741,-0.2609457599999982,-0.26080905000000015,-0.2512108108108107,-0.3192869189189192
349.5066,-0.27378,-0.2514554000000001,-0.26470629166666654,-0.2390287777777777,-0.3194183055555553
349.8366,-0.27378,-0.2568882333333329,-0.2557325444444443,-0.2568639157894764,-0.32452620810810767
350.1966,-0.27526,-0.26360429999999996,-0.2578956805555554,-0.23189926666666735,-0.3153328702702711
350.5466,-0.27431,-0.26446,-0.26033,-0.22576042222222223,-0.3103481513513514
350.8966,-0.25646,-0.2623317555555557,-0.2596764472222228,-0.22089978378378425,-0.3152891527777775
351.2566,-0.26386,-0.2683367764705869,-0.25455528611110934,-0.21934040000000016,-0.31808
351.5866,-0.29205,-0.2805058971428612,-0.27995611944444043,-0.22163,-0.31985728918918915
351.9366,-0.30641,-0.2519372999999999,-0.2549186166666657,-0.22515527777777783,-0.322328918918919
352.2966,-0.29553,-0.25229567777777795,-0.23078571111111013,-0.23061322222222222,-0.31543410882352907
352.6466,-0.29078,-0.2856017371428549,-0.24495207499999855,-0.2270000000000007,-0.31437454054053887
352.9966,-0.27822,-0.2967014666666659,-0.25909603055555464,-0.2217126666666667,-0.31967402432432435
353.3566,-0.28444,-0.27724279999999984,-0.25144804722222147,-0.21955879999999978,-0.31411098333333254
353.6866,-0.29025,-0.27558392727272685,-0.2620682250000002,-0.2150351567567567,-0.31406670270270315
354.0366,-0.29617,-0.2848320444444443,-0.2676914235294118,-0.2155903666666666,-0.31957924324324216
354.2166,-0.27368,-0.2839720444444443,-0.2649764416666663,-0.2144953666666664,-0.3128657297297285
354.3966,-0.28138,-0.2765353600000021,-0.260391441666667,-0.2134647,-0.3083090702702705
354.7466,-0.2912,-0.25537466666666714,-0.25022076666666654,-0.21315509189189213,-0.30259030000000003
355.1066,-0.29067,-0.2672166444444458,-0.26257855277777803,-0.2158585222222213,-0.2962715702702703
355.4366,-0.31876,-0.2753630285714283,-0.25008399444444407,-0.20282735135135116,-0.30272526486486473
355.7866,-0.29458,-0.28557604444444445,-0.2631352833333346,-0.21155360000000012,-0.30503816666666667
356.1366,-0.29458,-0.29002,-0.2710709499999999,-0.21464526666666633,-0.30565618108108134
356.4966,-0.30799,-0.29340708571428625,-0.27418275,-0.2030321333333348,-0.31749726216216273
356.8466,-0.30472,-0.27414,-0.26720581111111097,-0.20277019459459455,-0.3146371297297294
357.2066,-0.29669,-0.27395640000000004,-0.26333,-0.20776989999999973,-0.32883996486486433
357.5366,-0.29807,-0.2759562514285729,-0.2657440194444446,-0.24098943529412253,-0.32064259999999944
357.8866,-0.2912,-0.30421706666666615,-0.26572500833333357,-0.22335904864864797,-0.3183
358.2366,-0.29289,-0.2901629333333333,-0.2699578500000002,-0.21984,-0.3206569567567567
358.5966,-0.28413,-0.2900443555555555,-0.2657547388888876,-0.22566842222222264,-0.3147626499999989
358.9466,-0.30525,-0.29039404444444444,-0.2562057944444447,-0.21601744864864939,-0.30776601081081056
359.2766,-0.28888,-0.29347864000000085,-0.25848878888888754,-0.2178651999999991,-0.30836474324324314
359.6366,-0.278,-0.2828246777777778,-0.257558158333334,-0.20190900000000048,-0.31216264594594595
359.9866,-0.28824,-0.2827211555555564,-0.2551602750000008,-0.1944811027027028,-0.3119725722222221
360.3366,-0.30799,-0.29203252571428673,-0.2571042848484852,-0.19899819999999968,-0.3083098142857147
360.5166,-0.29954,-0.2819113828571441,-0.2510933757575756,-0.20293476666666607,-0.30617552857142905
360.6966,-0.28466,-0.2726041411764702,-0.25550767500000016,-0.20919976666666606,-0.30264800000000025
361.0266,-0.22965,-0.2780317714285711,-0.25990535,-0.2073296108108123,-0.2923374513513517
361.3766,-0.28803,-0.2843771999999998,-0.26546873611111055,-0.19903373333333335,-0.28496715135135164
361.7366,-0.29595,-0.2783939657142879,-0.26939650555555605,-0.2025007294117654,-0.29091488333333326
362.0866,-0.26206,-0.23321213333333088,-0.2371391000000002,-0.19714173333333554,-0.2869481351351358
362.4366,-0.26206,-0.2834176888888878,-0.23223936388888916,-0.19244628108108022,-0.2802096666666667
362.7966,-0.27959,-0.27146122222222246,-0.24424144722222224,-0.18775653333333073,-0.2744598750000001
363.1266,-0.27885,-0.2531136000000005,-0.24057879444444488,-0.15878433513513363,-0.26097042972972834
363.4766,-0.26523,-0.25262,-0.22751,-0.14812160000000407,-0.2826078756756789
363.8266,-0.26819,-0.25242128,-0.2345126083333315,-0.18399049999999967,-0.3068233351351347
364.1866,-0.27262,-0.26760287777777786,-0.25004960555555616,-0.18876865945945953,-0.2882784702702694
364.5366,-0.27283,-0.25250559999999944,-0.23134176111111032,-0.18753,-0.28782
364.8666,-0.2722,-0.2717651085714302,-0.22831907222222286,-0.18902860000000096,-0.2981703810810813
365.2266,-0.28487,-0.27306126666666647,-0.24304482500000035,-0.19940393513513543,-0.29855939729729725
365.5766,-0.30366,-0.2686144727272726,-0.2523058916666657,-0.20198968888888902,-0.30775739999999896
365.9266,-0.28751,-0.26581992222222206,-0.2627685749999987,-0.19699296470588246,-0.3056554513513516
366.2866,-0.30873,-0.2864630628571436,-0.2504109333333333,-0.2062903666666663,-0.3095130648648648
366.6166,-0.30218,-0.300848166666666,-0.25268118333333167,-0.2034068432432432,-0.31972975833333356
366.9666,-0.32625,-0.28510617777777536,-0.28168540277777526,-0.20228116756756748,-0.31660114594594435
367.1466,-0.31369,-0.2858330628571424,-0.2710104027777786,-0.20727457777777697,-0.3097923351351355
367.3166,-0.34441,-0.29351220571428543,-0.26204290833333305,-0.21239346666666614,-0.3039296324324323
367.6766,-0.2893,-0.3012792000000003,-0.2830832250000001,-0.1943560333333343,-0.3015151617647059
368.0266,-0.30999,-0.3031015777777777,-0.27605405833333435,-0.1866732444444447,-0.30404043513513523
368.3566,-0.32826,-0.34172475555555587,-0.281043530555556,-0.20200650810810963,-0.30833148333333454
368.7066,-0.32826,-0.31197334857143,-0.2966076888888893,-0.21457479999999945,-0.3131396864864866
369.0666,-0.33576,-0.3008893888888889,-0.2664912638888901,-0.2119471000000003,-0.3121979864864865
369.4166,-0.30746,-0.32562077714285753,-0.28326838235294316,-0.216210627027027,-0.3130836999999994
369.7666,-0.31813,-0.33267,-0.2956329027777773,-0.22383759999999858,-0.31023582972973085
370.0966,-0.32742,-0.33769865454545495,-0.29695,-0.22752445882352904,-0.30143299459459494
370.4566,-0.32383,-0.3274740666666668,-0.2857262500000001,-0.21522941111111274,-0.3117833083333338
370.8066,-0.3291,-0.3143705371428566,-0.2752933472222218,-0.2114684756756755,-0.30733
371.1566,-0.34969,-0.3139880888888891,-0.2813764250000007,-0.21258,-0.3065299583333316
371.5166,-0.32573,-0.33305005555555306,-0.28829517499999946,-0.21137708888888893,-0.29438200270270237
371.8466,-0.32721,-0.340867462857143,-0.2901740000000001,-0.20773142702702663,-0.30536119189189276
372.1966,-0.32446,-0.34620016969697,-0.28967394705882354,-0.2055552999999999,-0.30181098108108123
372.5466,-0.33143,-0.3283733333333309,-0.2759185750000003,-0.20673857777777777,-0.2966362166666667
372.9066,-0.27199,-0.3105214222222211,-0.2713557750000002,-0.1989448444444436,-0.2993305081081082
373.2566,-0.32467,-0.3085254057142855,-0.25960287222222195,-0.19281046486486508,-0.30038911351351344
373.4366,-0.33048,-0.3038131111111123,-0.25473576000000003,-0.1998693837837842,-0.3031454499999996
373.5866,-0.33016,-0.29197977777777934,-0.2582157599999993,-0.20066210588235325,-0.3070704499999995
373.9366,-0.32499,-0.25797902857142796,-0.2536835750000009,-0.1933547111111115,-0.3000624542857142
374.2966,-0.30018,-0.27074141818182085,-0.21908194999999864,-0.1878844000000012,-0.29032992500000004
374.6466,-0.28814,-0.2986894000000012,-0.2222477944444428,-0.19943570810810787,-0.29877220810810623
374.9966,-0.28814,-0.2831935333333336,-0.23013828749999993,-0.19956684444444434,-0.3056154999999999
375.3266,-0.29722,-0.2644104228571435,-0.23549050555555556,-0.18417157777777765,-0.29845196666666757
375.6866,-0.28392,-0.24370026666666614,-0.23680934166666673,-0.18629162222222195,-0.2958674270270274
376.0366,-0.25721,-0.23681,-0.22855876388888804,-0.18819591578947098,-0.3128028500000019
376.3866,-0.26871,-0.2633744969696945,-0.21762,-0.20428327777777772,-0.3124729189189194
376.7366,-0.28233,-0.28163346666666667,-0.23374912500000244,-0.19492059999999928,-0.30174702432432426
377.0666,-0.2628,-0.27354832000000007,-0.25723784999999993,-0.17386476666666775,-0.29197069722222224
377.4266,-0.2646,-0.2561367666666656,-0.25246339166666704,-0.19932979999999864,-0.29153
377.7766,-0.25837,-0.24709557714285732,-0.2344179029411763,-0.20115,-0.29111685135135135
378.1266,-0.27188,-0.2503976444444445,-0.23646284999999997,-0.1941690486486488,-0.28940129166666667
378.4866,-0.28043,-0.2564997212121214,-0.23972821666666663,-0.2148216222222217,-0.28982693243243257
378.8166,-0.29226,-0.2565629333333336,-0.23996886666666706,-0.21219654444444425,-0.29178051666666666
379.1666,-0.3309,-0.2508081485714284,-0.2386789485714303,-0.2013863891891879,-0.2949216864864863
379.5166,-0.28159,-0.2584017666666656,-0.2541485749999997,-0.19037328888888913,-0.28909465945945995
379.6966,-0.26713,-0.26989938285714205,-0.2564435749999997,-0.19343053333333282,-0.2941578970588231
379.8666,-0.27632,-0.2783119542857151,-0.2595825,-0.2049338666666668,-0.2998328970588241
380.2266,-0.28402,-0.30248146666667003,-0.2731488583333369,-0.2134474888888889,-0.2967518486486484
380.5566,-0.27938,-0.30449141818181835,-0.29677805000000007,-0.2144384324324324,-0.2993266916666667
380.9066,-0.28824,-0.28110528888888675,-0.2950153277777767,-0.21278217777777755,-0.2975302324324323
381.2566,-0.28824,-0.28052744000000013,-0.27291200000000004,-0.2118482,-0.29538658108108123
381.6066,-0.28149,-0.2797380228571442,-0.27593133055555613,-0.21029217777777784,-0.30035310000000065
381.9366,-0.26301,-0.3007940333333348,-0.28759020277777814,-0.21883796666666622,-0.30382284594594605
382.2966,-0.27568,-0.31642,-0.27916321111111136,-0.2147080648648628,-0.29850604999999925
382.6466,-0.2969,-0.30752855294117776,-0.27057,-0.2068763333333325,-0.2935226333333334
382.9966,-0.27441,-0.2899901599999997,-0.27057,-0.20709537777777753,-0.28818832432432423
383.3466,-0.27864,-0.28840480000000035,-0.27503845714285713,-0.21336403333333323,-0.2867722722222225
383.6866,-0.27009,-0.2949663885714286,-0.2771756,-0.2047271567567552,-0.289572772972973
384.0366,-0.27927,-0.29436,-0.28874571111111164,-0.18822,-0.28878
384.3866,-0.24327,-0.29625879999999993,-0.27329427500000153,-0.19076931764705846,-0.28377889729729683
384.7366,-0.26312,-0.2980090742857141,-0.27112256666666656,-0.19477960000000005,-0.27167127941176433
385.0866,-0.26396,-0.29204957777777873,-0.29088642499999917,-0.18953977777777745,-0.270490827027026
385.4266,-0.27875,-0.28279558857142856,-0.2852807027777776,-0.19726746666666592,-0.27794291388888887
385.7766,-0.2722,-0.2777017333333331,-0.26095940000000134,-0.17962431351351238,-0.2756347864864865
386.1266,-0.29004,-0.28005186285714295,-0.256558575,-0.18889883333333368,-0.2642351162162163
386.3066,-0.29142,-0.2790027200000001,-0.25879874166666655,-0.1849738333333337,-0.2650280891891893
386.4766,-0.29669,-0.2883007030303032,-0.26200513055555563,-0.18188946666666667,-0.26634493333333414
386.8066,-0.28191,-0.2989300000000006,-0.26573079166666685,-0.18224696666666668,-0.2738161135135136
387.1566,-0.29986,-0.2828202400000004,-0.2720597055555565,-0.17659835555555506,-0.2789431405405409
387.5166,-0.29986,-0.29341444444444414,-0.27119805000000013,-0.1799370702702701,-0.2588298000000018
387.8666,-0.29659,-0.3025626857142857,-0.26085863714285756,-0.1616286666666655,-0.24986993243243272
388.2166,-0.2949,-0.31741280000000044,-0.2637415312499958,-0.16688444324324386,-0.2552324916666676
388.5466,-0.31105,-0.32696,-0.2590815111111112,-0.17055093333333346,-0.25689615945945954
388.8966,-0.32129,-0.3210450285714307,-0.27247671944444235,-0.17341504444444417,-0.27024968108108083
389.2566,-0.31358,-0.30450175555555553,-0.27895,-0.18326180000000034,-0.272416875
389.6066,-0.32393,-0.3107274971428577,-0.27198252571428516,-0.1693419368421024,-0.2587239842105269
389.9566,-0.31369,-0.32834934857142795,-0.2833637499999977,-0.1739591999999997,-0.26623937058823527
390.2866,-0.34188,-0.3301823764705871,-0.2891548833333327,-0.1776823333333333,-0.26621215675675663
390.6366,-0.33629,-0.31696648000000055,-0.28222588235294127,-0.17758,-0.26586
390.9866,-0.32731,-0.315273040000001,-0.27057703333333355,-0.18189844705882366,-0.26640819459459464
391.3466,-0.32657,-0.3310129333333335,-0.26410654000000017,-0.17707245555555493,-0.2654971333333332
391.6766,-0.33143,-0.33474848,-0.2686378361111114,-0.17809799999999995,-0.26962984594594563
392.0266,-0.29088,-0.3309329000000007,-0.2731087999999999,-0.1823227999999999,-0.2833563277777767
392.3766,-0.31897,-0.320591309090909,-0.27306563611111123,-0.18984784444444414,-0.2916577189189189
392.5566,-0.33333,-0.3269240363636368,-0.27183063611111125,-0.19705784444444527,-0.2911517729729729
392.7266,-0.36395,-0.3280158171428562,-0.2767779694444447,-0.19282744444444366,-0.288379199999999
393.0766,-0.34019,-0.31446733333333493,-0.27928039090909157,-0.18243590000000057,-0.27831398108108135
393.4066,-0.35666,-0.3000262171428576,-0.2682280249999997,-0.17490900540540535,-0.2702538416666673
393.7666,-0.35666,-0.32772488888888773,-0.2684912666666665,-0.17742668888888777,-0.2792840459459449
394.1166,-0.34748,-0.3474207636363639,-0.28121681944444465,-0.1858273777777777,-0.2913548702702701
394.4666,-0.36363,-0.3300308444444472,-0.29576698888888947,-0.18863184705882377,-0.29588223823529397
394.7966,-0.36015,-0.35644,-0.297943883333331,-0.19455200000000028,-0.29055370882352916
395.1466,-0.37208,-0.35536879999999993,-0.28531791666666556,-0.2038858888888888,-0.2917459749999999
395.4966,-0.38454,-0.3477895771428574,-0.30754,-0.1928929333333337,-0.2863792216216218
395.8566,-0.36247,-0.35751200000000033,-0.3049043742857133,-0.2032469333333334,-0.29381209722222196
396.2066,-0.36268,-0.3767966999999995,-0.2971455055555556,-0.21148948888889052,-0.2989249111111113
396.5366,-0.37461,-0.3847579085714278,-0.2990864472222224,-0.19366372222222256,-0.29111051944444355
396.8866,-0.37883,-0.3675308228571425,-0.31034315833333304,-0.21885,-0.29196440540540536
397.2366,-0.38316,-0.35873706666666705,-0.3121715999999995,-0.21885,-0.29323
397.5866,-0.37292,-0.3690895428571433,-0.3054235972222221,-0.2106448000000009,-0.29332368918918916
397.9166,-0.36215,-0.3649924727272708,-0.30647776388888887,-0.20398979999999925,-0.29787084999999996
398.2666,-0.38844,-0.3504293142857124,-0.3045068277777777,-0.19458653333333353,-0.30310769999999987
398.6266,-0.3631,-0.3689554666666667,-0.3059876749999997,-0.20552373333333307,-0.3053224945945947
398.7966,-0.36701,-0.3685493555555555,-0.3101951749999999,-0.21213125405405428,-0.3062092513513516
398.9766,-0.35708,-0.3680458285714284,-0.3139863542857144,-0.21924368648648687,-0.3099864000000007
399.3066,-0.37271,-0.3661716342857136,-0.2985989257142851,-0.21183590000000058,-0.30955014444444484
399.6566,-0.38886,-0.3812373529411784,-0.31872190000000145,-0.20021951111110997,-0.3094615162162163
400.0066,-0.38886,-0.39557277647059214,-0.30117331111111245,-0.20136378888888892,-0.31893068888888976
400.3566,-0.37683,-0.3694432000000014,-0.3227852470588251,-0.21116326666666704,-0.31118042432432497
400.7066,-0.37598,-0.3844766666666685,-0.31359304571428676,-0.2135514470588236,-0.31826968888888874
401.0366,-0.37366,-0.3611016666666665,-0.30010680000000006,-0.20971715555555512,-0.3196101621621609
401.3966,-0.3687,-0.35977,-0.30252427499999984,-0.21157773333333288,-0.3003746999999987
401.7466,-0.38031,-0.36579296000000006,-0.3059134666666667,-0.22013750270270238,-0.3148858567567564
402.0966,-0.35888,-0.36546613333333305,-0.30648,-0.21965808888888885,-0.32087194166666666
402.4266,-0.35223,-0.36211113333333333,-0.30627802499999995,-0.19597973333333024,-0.3090377749999992
402.7766,-0.39024,-0.3499116342857143,-0.30553887058823537,-0.19878956666666725,-0.29959978888888805
403.1266,-0.37936,-0.3684679885714287,-0.3058611194444444,-0.2016560888888884,-0.29979160000000016
403.4766,-0.35255,-0.3892922333333311,-0.27296072857142584,-0.21576,-0.3031077777777782
403.8266,-0.3688,-0.36952695555555604,-0.2834449055555544,-0.21539608888888892,-0.30354
404.1566,-0.36099,-0.36606578285714275,-0.30083168055555615,-0.20658135555555407,-0.305272027777778
404.5166,-0.35624,-0.3852461714285714,-0.29652876388888916,-0.19448127567567425,-0.30970134324324305
404.8666,-0.38263,-0.36991879999999944,-0.30364364545454575,-0.20219890000000004,-0.310642675
405.0366,-0.39045,-0.3762600342857152,-0.3108638583333334,-0.19656528888888775,-0.3072429837837833
405.2166,-0.365,-0.3861651771428578,-0.3137288583333334,-0.19681328888889077,-0.2978246054054047
405.5466,-0.37598,-0.38509396363636356,-0.311033772222222,-0.2098332555555565,-0.3030119333333346
405.8966,-0.38433,-0.36993632000000204,-0.31801096285714187,-0.22223320000000085,-0.3029779675675674
406.2466,-0.38433,-0.38050224444444497,-0.3271175944444444,-0.21375092941176424,-0.29986610833333394
406.5966,-0.37746,-0.39297159999999776,-0.3345373250000009,-0.22494933333333336,-0.30992400810810883
406.9266,-0.3819,-0.41012751999999886,-0.33278758529411695,-0.22454971111111102,-0.3152412194444445
407.2766,-0.37693,-0.4100620000000006,-0.3578711941176368,-0.21191499999999677,-0.31339368235294185
407.6266,-0.4046,-0.40948,-0.32693263333333383,-0.23743583333333482,-0.30635863783783773
407.9766,-0.32214,-0.39605508571428466,-0.33191797499999975,-0.23178582222222172,-0.30711992500000085
408.3066,-0.42064,-0.39569574857142853,-0.32995,-0.22415437837837815,-0.31553984864864865
408.6666,-0.42064,-0.3972132800000001,-0.33790379714285795,-0.21986506666666655,-0.3151325416666665
409.0166,-0.40269,-0.41650801212120997,-0.3448704882352947,-0.2220135333333344,-0.3178272684210463
409.3666,-0.40871,-0.3701397333333298,-0.3269957000000007,-0.21795221176470583,-0.31696458611111095
409.7166,-0.40998,-0.4271763657142925,-0.32816018857142987,-0.21919285555555568,-0.3204483945945954
410.0466,-0.38802,-0.40594064000000063,-0.3388854166666653,-0.21954,-0.3262100162162167
410.3966,-0.40101,-0.40500914285714246,-0.3338924999999937,-0.22025444444444442,-0.32654
410.7466,-0.41832,-0.41722073939394033,-0.3821046171428573,-0.21753239999999985,-0.31018993513513526
411.0766,-0.41705,-0.4170347333333333,-0.3722579750000003,-0.2211374999999996,-0.31151827499999957
411.4266,-0.40122,-0.4256443085714287,-0.3555283676470594,-0.22458266666666665,-0.31471893235294124
411.6066,-0.40681,-0.4252595428571424,-0.3648724852941193,-0.22296040000000028,-0.31650912432432454
411.7766,-0.39425,-0.42013525714285743,-0.3678804200000002,-0.2120254000000021,-0.3184204756756754
412.1266,-0.41083,-0.4138392228571428,-0.36063982499999986,-0.2403834888888875,-0.3126386527777781
412.4766,-0.41083,-0.4020985454545441,-0.3674133555555555,-0.25799088888888877,-0.3292011054054058
412.8066,-0.40217,-0.4160042000000007,-0.3641086388888891,-0.24232713333333333,-0.3283441638888883
413.1566,-0.3858,-0.4274577333333314,-0.359707060000001,-0.23221152432432388,-0.3221924459459462
413.5166,-0.41441,-0.4281653599999995,-0.3676186529411765,-0.23327564444444426,-0.32660521666666664
413.8666,-0.40618,-0.43272,-0.36489896666666555,-0.23114188888888879,-0.3312583722222223
414.1966,-0.44704,-0.43746235151515145,-0.36660507428571426,-0.22289991111111038,-0.3254733783783792
414.5466,-0.43258,-0.41334419999999894,-0.36789,-0.23468568235294088,-0.3219517666666666
414.8966,-0.38981,-0.41314675428571296,-0.36789,-0.24669,-0.3339334264705882
415.2466,-0.42307,-0.42428093714285714,-0.3479410888888881,-0.24397650000000046,-0.33584414054054057
415.5766,-0.42645,-0.44787698285714084,-0.3577939171428564,-0.23790559999999952,-0.3351896805555564
415.9266,-0.42846,-0.4393911999999997,-0.36211508529411784,-0.2354456333333335,-0.3260311736842103
416.2766,-0.41663,-0.4170062057142883,-0.3670133777777774,-0.23754,-0.32300927777777827
416.6266,-0.42085,-0.4393389666666672,-0.377749705714285,-0.23705743333333357,-0.31919
416.9566,-0.399,-0.44029456000000056,-0.36868850833333344,-0.23296465882352882,-0.31961549999999994
417.3066,-0.41515,-0.44361810909090954,-0.33006158611110925,-0.2380146222222223,-0.3329614611111109
417.6566,-0.39805,-0.43169196571428425,-0.3611157600000024,-0.25121739999999965,-0.3238809055555551
417.8366,-0.40428,-0.4281395199999992,-0.37101497058823535,-0.24515240000000155,-0.32213784594594624
418.0066,-0.43247,-0.43341437714285735,-0.3706649705882353,-0.23942434444444566,-0.3206354135135137
418.3366,-0.40745,-0.4231232457142865,-0.3757539472222218,-0.26508791111111013,-0.3280078666666654
418.6866,-0.40745,-0.42683097777777745,-0.37679136857142864,-0.23639055555555535,-0.335090832352941
419.0366,-0.3953,-0.4252863393939387,-0.37373811944444413,-0.2074745333333324,-0.33904913783783797
419.3866,-0.3895,-0.4237835999999999,-0.3689866750000001,-0.2455066999999949,-0.317618991666669
419.7166,-0.39678,-0.417107439999999,-0.3799666171428582,-0.25429556756756755,-0.3408565648648655
420.0666,-0.42191,-0.41303,-0.3812751000000002,-0.24224705454545503,-0.3360359638888891
420.4166,-0.4311,-0.41914776000000087,-0.37338513333333273,-0.25587262222222174,-0.3259703702702703
420.7666,-0.39129,-0.4291247999999995,-0.36646597714285717,-0.24956866666666738,-0.3319601777777775
421.0966,-0.4558,-0.42779279999999936,-0.36551,-0.24372275555555545,-0.3250923444444433
421.4466,-0.40132,-0.4193340000000001,-0.35980470833333345,-0.22960858378378451,-0.3165257297297291
421.7966,-0.40808,-0.42948464444444456,-0.3625235857142857,-0.23055185555555566,-0.32529453333333364
422.1466,-0.397,-0.43694606857142865,-0.36684588235294174,-0.2361840000000022,-0.3284377852941178
422.4966,-0.40533,-0.4424615999999998,-0.36582187142857137,-0.22670193939393937,-0.3180410111111116
422.8266,-0.44525,-0.43647013714285793,-0.3659914916666668,-0.2261,-0.32140713333333426
423.1766,-0.39414,-0.4404319085714289,-0.37358762500000137,-0.22961953333333351,-0.31341
423.5266,-0.40797,-0.44524730285714303,-0.38389280285714306,-0.24363395555555506,-0.3187253378378373
423.8766,-0.39794,-0.4387748000000002,-0.3802939705882354,-0.24709716666666653,-0.33543154722222196
424.0366,-0.41114,-0.4356028114285714,-0.3781763235294114,-0.23516383333333177,-0.3295959916666657
424.2066,-0.4047,-0.43466538285714296,-0.3810822444444441,-0.23104279999999985,-0.3235768270270276
424.5566,-0.382,-0.4318845485714285,-0.38287584285714304,-0.23125661818181828,-0.31392629999999994
424.9066,-0.382,-0.423936533333333,-0.371940891666666,-0.2383239351351371,-0.3370364499999997
425.2366,-0.40481,-0.42801419428571463,-0.3661855250000008,-0.2610033888888889,-0.326971449999999
425.5866,-0.3953,-0.43211920000000764,-0.37853010571428464,-0.2660182666666673,-0.3394936314285706
425.9366,-0.37567,-0.4229250971428565,-0.38604041176470644,-0.2600212444444441,-0.3496997194444441
426.2866,-0.39203,-0.43454,-0.3739925485714282,-0.2545266444444442,-0.33476835000000005
426.6166,-0.41188,-0.43448822857142855,-0.37001,-0.25249777777777777,-0.33275901891891896
426.9666,-0.38443,-0.43131818285714224,-0.36712232500000086,-0.25364680000000034,-0.33227450277777765
427.3166,-0.42001,-0.42551629090909093,-0.37204,-0.26321346666666723,-0.338342375
427.6666,-0.40217,-0.424375942857143,-0.37353296470588265,-0.24202940000000017,-0.34078677027027027
427.9966,-0.40998,-0.43314372571428605,-0.37856038857142804,-0.24750189999999972,-0.34303202777777764
428.3466,-0.40555,-0.43272017142856994,-0.36656780833333347,-0.24842533333333341,-0.33700193243243226
428.6966,-0.42487,-0.4295238545454545,-0.3711137416666655,-0.25029408888888893,-0.32525217647058874
429.0466,-0.42381,-0.4165572914285702,-0.3840498571428559,-0.2575672000000003,-0.3388701944444441
429.3766,-0.40544,-0.4161164457142862,-0.37137000000000014,-0.25872,-0.3257878972222229
429.7266,-0.40132,-0.43225281142857247,-0.35970333333333315,-0.23979738181818072,-0.3189
430.0766,-0.41938,-0.4261509142857156,-0.37534307777777826,-0.24629551111111012,-0.3229164833333336
430.4266,-0.39193,-0.4238027999999999,-0.3639848833333331,-0.24386480000000033,-0.32720147499999946
430.6066,-0.41917,-0.42961100571428545,-0.37201488333333316,-0.2484038999999999,-0.3213064749999994
430.7566,-0.41336,-0.4260581485714291,-0.3787065499999986,-0.2578080666666663,-0.3192757648648648
431.1066,-0.41336,-0.4223395657142857,-0.399877245714287,-0.26580244444444456,-0.3212392027777779
431.4566,-0.42371,-0.42763836666666616,-0.38065107500000145,-0.24594560000000237,-0.32796514594594517
431.8066,-0.44789,-0.40976014999999966,-0.3915507030303036,-0.25529733333333166,-0.333831041176471
432.1366,-0.41811,-0.43375416470588446,-0.3890796916666668,-0.2688745882352942,-0.3277156944444439
432.4866,-0.44091,-0.41324,-0.3683219750000003,-0.27438835555555563,-0.34404138333333334
432.8366,-0.42656,-0.42413321142857063,-0.38323729999999934,-0.27371920000000133,-0.3394127810810792
433.1866,-0.40871,-0.4488244685714276,-0.3559593638888884,-0.27898682222222176,-0.3530249432432442
433.5166,-0.40269,-0.437690363636369,-0.3832731999999995,-0.28114328888888934,-0.3494046
433.8666,-0.41927,-0.4071848685714285,-0.38545,-0.26776239999999996,-0.3416441499999998
434.2166,-0.42276,-0.41140556571428705,-0.381477733333333,-0.26541819999999994,-0.3444612810810815
434.5466,-0.43638,-0.4096360799999996,-0.410374211428575,-0.2662939764705881,-0.341561475
434.8966,-0.44525,-0.40266809999999936,-0.39018410000000053,-0.2652760888888903,-0.34554676176470533
435.2466,-0.44841,-0.40934116666666626,-0.383009,-0.26749819999999724,-0.34340112500000003
435.5966,-0.44725,-0.4157150628571431,-0.3865200323529412,-0.27562,-0.3344385513513509
435.9166,-0.43036,-0.4092268914285703,-0.37349212571428464,-0.2751506222222219,-0.3479636666666666
436.2666,-0.44334,-0.403886639999999,-0.37358089166666547,-0.2771363999999977,-0.35228
436.6166,-0.51039,-0.4166330750000002,-0.37829535277777776,-0.3188784000000004,-0.35749161351351416
436.7966,-0.43975,-0.41769834285714447,-0.37762645142857093,-0.3024560470588221,-0.362974316216217
436.9666,-0.45137,-0.4245469142857161,-0.3752270228571423,-0.2880480666666642,-0.3674744027777787
437.2966,-0.45137,-0.42435847999999965,-0.36006910882352755,-0.26874080000000095,-0.3626939611111104
437.6466,-0.43363,-0.4189167999999993,-0.36098656285714226,-0.29697413333333045,-0.3497586264705865
437.9966,-0.46742,-0.4503677090909088,-0.35929662500000026,-0.27514315555555724,-0.3608980864864862
438.3466,-0.47006,-0.4190116888888721,-0.3565222361111114,-0.2873684000000014,-0.3524787333333331
438.6766,-0.46266,-0.43142,-0.36806411142857137,-0.28307026666666646,-0.350304575
439.0266,-0.44451,-0.4199417600000019,-0.3695391888888893,-0.2772596888888895,-0.3488220378378388
439.3766,-0.46256,-0.4141898400000005,-0.38174728787878764,-0.2866897454545454,-0.3441403249999989
439.7266,-0.4595,-0.4357894181818197,-0.38472524999999713,-0.27654226666666626,-0.3584224555555552
440.0566,-0.4443,-0.44615767999999995,-0.34539,-0.28387009999999946,-0.3551834378378379
440.4066,-0.45918,-0.44469519999999985,-0.34950964166666715,-0.2903488444444449,-0.35945911351351384
440.7566,-0.46858,-0.43674607999999965,-0.36443725428571444,-0.2908512555555556,-0.35675608611111126
441.0766,-0.47227,-0.4348837818181814,-0.37568346764705934,-0.29947536666666597,-0.366602882352941
441.4266,-0.46974,-0.44332529142857086,-0.36777405428571464,-0.3214080000000012,-0.3690443861111111
441.7766,-0.46541,-0.4392808685714278,-0.3717541583333334,-0.2665170000000008,-0.3642255648648654
442.1266,-0.46858,-0.445212594285714,-0.3701684000000001,-0.26021,-0.3843270222222206
442.4566,-0.45179,-0.4484562545454545,-0.3684889085714287,-0.26828736666666503,-0.34748677222221874
442.8066,-0.47639,-0.44633475428571395,-0.3734870823529411,-0.27860317777777777,-0.36155
442.9866,-0.49529,-0.44284789714285694,-0.3653129647058827,-0.2807381777777781,-0.36051679166666595
443.1566,-0.49212,-0.4497528352941196,-0.3644802200000003,-0.2749425999999985,-0.3562431805555546
443.5066,-0.49212,-0.45017279999999954,-0.379747425,-0.27512066666666696,-0.3605775166666662
443.8366,-0.46266,-0.4519224606060589,-0.38100354285714233,-0.28633382222222215,-0.3691239117647056
444.1866,-0.46721,-0.4644013599999995,-0.38453571666666514,-0.2844711999999999,-0.361568702702702
444.5366,-0.48072,-0.46210560000000084,-0.36596454545454743,-0.2815928000000003,-0.3605532000000015
444.8566,-0.47871,-0.45585,-0.3843950138888893,-0.2853789777777776,-0.3698861305555554
445.2066,-0.4728,-0.45610971428571423,-0.37275192571428534,-0.2810396333333334,-0.36885034722222165
445.5566,-0.48294,-0.4588917818181817,-0.40192023333333343,-0.29615289411764695,-0.3734190216216212
445.9066,-0.49128,-0.4664869942857147,-0.3940257888888888,-0.29395204444444456,-0.36866224166666617
446.2366,-0.48473,-0.4702766971428572,-0.3909520882352945,-0.2943790888888872,-0.36725099166666714
446.5866,-0.48515,-0.4675858971428571,-0.39136,-0.27894439999999904,-0.3764634264705878
446.9366,-0.48378,-0.4663868500000002,-0.3961489771428573,-0.29313403333333427,-0.3813369027027025
447.2866,-0.47956,-0.47034816000000035,-0.38540469999999927,-0.2747444888888889,-0.37616473333333117
447.6166,-0.49476,-0.47805930285714293,-0.3931598333333332,-0.27018865555555527,-0.35667267222222243
447.9666,-0.49223,-0.47229252571428504,-0.3903840057142851,-0.29717800000000166,-0.3638865611111115
448.3166,-0.47016,-0.46709564848484847,-0.39416043030303,-0.2974052222222193,-0.3656144249999999
448.6366,-0.48589,-0.46592779428571457,-0.4071724055555557,-0.297,-0.3726415756756758
448.9866,-0.48431,-0.46966345142857135,-0.3862124416666646,-0.30667680000000036,-0.36183598333333217
449.3366,-0.47671,-0.47755234117647166,-0.39325821142856987,-0.2856785000000027,-0.35836
449.5166,-0.48009,-0.46952116470588384,-0.39316630833333477,-0.2871699666666647,-0.36744551111110935
449.6866,-0.48009,-0.4720241818181813,-0.38583269722222324,-0.2962791333333319,-0.3813477333333345
450.0166,-0.48758,-0.46690564571428833,-0.38656241999999963,-0.2993304606060607,-0.3719179250000001
450.3666,-0.4918,-0.46081623999999916,-0.3905117882352941,-0.30444919999999964,-0.3655643297297298
450.7166,-0.47101,-0.4781817371428562,-0.3983714885714294,-0.2970468444444433,-0.3748229750000011
451.0366,-0.50648,-0.47686035294117834,-0.3901166166666654,-0.28575973333333227,-0.3820647472222223
451.3866,-0.49233,-0.48081987058823533,-0.3979120599999979,-0.29095103333333255,-0.3757978972972989
451.7366,-0.48568,-0.48078854857142866,-0.3897028454545459,-0.29629708888888895,-0.3692512916666667
452.0866,-0.48473,-0.47311950857143054,-0.40413548333332877,-0.3068301999999981,-0.36925100000000044
452.4166,-0.49075,-0.4721213942857152,-0.40487956944444325,-0.31101279999999976,-0.3660299083333333
452.7666,-0.49138,-0.493240581818183,-0.39983,-0.3068400342857143,-0.3717600111111105
453.1166,-0.49307,-0.47985083428571423,-0.39834715000000004,-0.29269238888888727,-0.37406751351351303
453.4666,-0.47322,-0.475256194285713,-0.39413033333333297,-0.28746377777777943,-0.36635459999999953
453.7866,-0.48969,-0.47137909411764795,-0.3950379542857145,-0.29561993333333314,-0.36216842499999985
454.1366,-0.48917,-0.4795680606060605,-0.3967653222222224,-0.2913197647058824,-0.36024677499999963
454.4866,-0.52644,-0.47172331428571584,-0.3911567249999995,-0.2940690000000003,-0.3655783294117652
454.8166,-0.50173,-0.4827939771428573,-0.3904629485714284,-0.29421840000000105,-0.3697863138888891
455.1666,-0.4935,-0.4803811200000001,-0.3886565545454541,-0.2861926399999999,-0.3624887
455.5166,-0.48832,-0.47815665000000007,-0.3823079611111101,-0.2815488888888885,-0.35708734864864927
455.6866,-0.49761,-0.47015602499999914,-0.3896840722222216,-0.28981277777777786,-0.3678332000000014
455.8366,-0.49761,-0.47003612571428555,-0.3999098199999979,-0.29521382222222203,-0.36911
456.1866,-0.49043,-0.4714092800000002,-0.40618909999999836,-0.2981843176470587,-0.3666342888888888
456.5366,-0.47238,-0.47206270857142896,-0.3832165257142868,-0.3004751111111111,-0.3635058416666665
456.8866,-0.48547,-0.48530185,-0.3960186147058825,-0.2993181000000002,-0.36276604054054057
457.2166,-0.49318,-0.47138859999999466,-0.3931677828571425,-0.2951449999999997,-0.3639221055555556
457.5666,-0.47576,-0.4650452114285714,-0.3924231138888883,-0.2871241666666662,-0.35891602058823563
457.9166,-0.48832,-0.46904232000000035,-0.4010188714285714,-0.3003726400000008,-0.3583695333333334
458.2666,-0.50194,-0.4727104727272726,-0.4064220833333331,-0.30297791111111094,-0.3584435027777779
458.5866,-0.49255,-0.48383936470588135,-0.4099584454545472,-0.3014526823529412,-0.35316348918918977
458.9366,-0.49476,-0.49757957714285717,-0.39739315555555593,-0.29075953333333326,-0.354356794444445
459.2866,-0.50247,-0.49729714285714455,-0.4075397971428574,-0.2929922666666668,-0.3674849250000012
459.6166,-0.49244,-0.5027373333333328,-0.41452872777777694,-0.29392799999999997,-0.3715271083333334
459.9666,-0.50321,-0.49527982352941297,-0.4289761142857118,-0.29637136000000025,-0.3609788117647054
460.3166,-0.49803,-0.5001848114285716,-0.4104678303030299,-0.2974929411764705,-0.36135498333333327
460.6366,-0.51778,-0.5012650285714285,-0.4195922666666667,-0.29957759999999994,-0.36897497297297327
460.9866,-0.51588,-0.5095010666666661,-0.41290337777777764,-0.3058499444444449,-0.36411652499999997
461.3366,-0.48368,-0.4954551647058825,-0.4108640600000003,-0.29272,-0.3639229916666671
461.6866,-0.51282,-0.4977610399999997,-0.4266173111111117,-0.3081411999999988,-0.3603548194444443
461.8366,-0.50532,-0.5021410399999995,-0.4235584030303037,-0.3181000000000011,-0.35945898611111116
462.0166,-0.50532,-0.5020308457142859,-0.41898203939394046,-0.31360000000000054,-0.35955327777777724
462.3566,-0.51862,-0.4968543999999999,-0.4208870388888891,-0.30507394117647035,-0.36739440588235284
462.7066,-0.51873,-0.4970868941176467,-0.41320785142857197,-0.2990144000000002,-0.36224710000000004
463.0366,-0.52739,-0.4990337828571427,-0.4175131583333334,-0.2934664999999991,-0.3520527756756746
463.3866,-0.52084,-0.5019513777777774,-0.4206477571428571,-0.29043684444444434,-0.36763421388888834
463.7366,-0.51282,-0.501120275,-0.4267444999999998,-0.29138536000000004,-0.3485443333333334
464.0866,-0.51081,-0.4986004114285708,-0.42534053333333344,-0.2896530235294115,-0.356086327777776
464.4066,-0.50416,-0.5049188342857138,-0.4236873599999999,-0.2876007222222216,-0.3598781388888891
464.7566,-0.50279,-0.49983776000000024,-0.42653159999999973,-0.28823319999999814,-0.3484775594594592
465.1066,-0.50405,-0.49685019999999996,-0.4168997971428563,-0.30297150000000006,-0.3564420882352944
465.4366,-0.49519,-0.49955848,-0.43336,-0.2991891200000004,-0.36201402499999996
465.7766,-0.503,-0.4927671657142858,-0.4168277885714299,-0.31418935555555455,-0.35840322500000016
466.1266,-0.52422,-0.4923224342857141,-0.41270302777777784,-0.3202594117647069,-0.35381950833333337
466.4766,-0.50564,-0.503794675,-0.40921920285714264,-0.3005985222222202,-0.354480613888889
466.8066,-0.51514,-0.5135590514285714,-0.41170786969696954,-0.2742718666666659,-0.3654270361111113
467.1566,-0.52021,-0.5140627085714308,-0.4008609805555547,-0.3045123657142855,-0.36910689999999785
467.5066,-0.53161,-0.5200504588235296,-0.4022921799999999,-0.29162651111111126,-0.35630507297297315
467.8266,-0.51989,-0.5060281333333333,-0.40609845833333336,-0.30475,-0.3557717166666661
468.1766,-0.51989,-0.5073356228571428,-0.4157188114285714,-0.28944858823529274,-0.3579382583333335
